?
30.0     1189
30.02054 1187
30.04109 1131
30.06164 1187
30.08219 1126
30.10273 1168
30.12328 1153
30.14383 1123
30.16438 1111
30.18493 1128
30.20547 1247
30.22602 1102
30.24657 1112
30.26712 1137
30.28767 1136
30.30821 1168
30.32876 1157
30.34931 1146
30.36986 1172
30.39040 1162
30.41095 1127
30.43150 1125
30.45205 1142
30.47259 1168
30.49314 1106
30.51369 1147
30.53424 1149
30.55479 1170
30.57533 1176
30.59588 1175
30.61643 1102
30.63698 1199
30.65753 1151
30.67807 1184
30.69862 1149
30.71917 1169
30.73972 1118
30.76026 1139
30.78081 1194
30.80136 1176
30.82191 1182
30.84246 1138
30.86300 1172
30.88355 1138
30.90410 1147
30.92465 1139
30.94519 1145
30.96574 1157
30.98629 1180
31.00684 1110
31.02739 1140
31.04793 1115
31.06848 1127
31.08903 1149
31.10958 1202
31.13012 1112
31.15067 1127
31.17122 1229
31.19177 1171
31.21232 1181
31.23286 1109
31.25341 1227
31.27396 1128
31.29451 1141
31.31506 1129
31.33560 1148
31.35615 1128
31.37670 1166
31.39725 1115
31.41779 1127
31.43834 1156
31.45889 1110
31.47944 1095
31.49998 1153
31.52053 1124
31.54108 1110
31.56163 1124
31.58218 1145
31.60272 1156
31.62327 1141
31.64382 1177
31.66437 1161
31.68491 1150
31.70546 1167
31.72601 1171
31.74656 1155
31.76711 1156
31.78765 1144
31.80820 1176
31.82875 1148
31.84930 1132
31.86985 1152
31.89039 1189
31.91094 1166
31.93149 1157
31.95204 1184
31.97258 1230
31.99313 1138
32.01368 1119
32.03423 1126
32.05477 1217
32.07532 1167
32.09587 1232
32.11642 1154
32.13697 1122
32.15752 1158
32.17806 1142
32.19861 1143
32.21916 1176
32.23971 1197
32.26025 1192
32.28080 1169
32.30135 1196
32.32190 1109
32.34244 1131
32.36299 1110
32.38354 1072
32.40409 1072
32.42464 1143
32.44518 1141
32.46573 1167
32.48628 1161
32.50683 1201
32.52737 1122
32.54792 1166
32.56847 1120
32.58902 1164
32.60957 1127
32.63011 1147
32.65066 1192
32.67121 1205
32.69176 1094
32.71231 1183
32.73285 1172
32.75340 1180
32.77395 1098
32.79450 1173
32.81504 1194
32.83559 1143
32.85614 1178
32.87669 1165
32.89724 1204
32.91778 1164
32.93833 1193
32.95888 1163
32.97943 1151
32.99997 1141
33.02052 1149
33.04107 1172
33.06162 1177
33.08216 1154
33.10271 1136
33.12326 1154
33.14381 1158
33.16436 1120
33.18491 1108
33.20545 1190
33.22600 1125
33.24655 1118
33.26710 1147
33.28764 1172
33.30819 1172
33.32874 1118
33.34929 1135
33.36983 1179
33.39038 1118
33.41093 1111
33.43148 1161
33.45203 1177
33.47258 1178
33.49312 1137
33.51367 1159
33.53422 1147
33.55476 1097
33.57531 1117
33.59586 1124
33.61641 1099
33.63695 1133
33.65750 1142
33.67805 1102
33.69860 1128
33.71915 1192
33.7397  1204
33.76024 1118
33.78079 1183
33.80134 1167
33.82189 1126
33.84243 1133
33.86298 1170
33.88353 1166
33.90408 1119
33.92462 1209
33.94517 1203
33.96572 1162
33.98627 1139
34.00682 1136
34.02737 1187
34.04791 1196
34.06846 1174
34.08901 1165
34.10955 1178
34.13010 1127
34.15065 1192
34.17120 1078
34.19175 1190
34.21229 1158
34.23284 1174
34.25339 1169
34.27394 1153
34.29449 1096
34.31503 1067
34.33558 1152
34.35613 1162
34.37668 1203
34.39722 1160
34.41777 1117
34.43832 1185
34.45887 1121
34.47942 1131
34.49996 1108
34.52051 1152
34.54106 1144
34.56161 1118
34.58216 1158
34.60270 1168
34.62325 1198
34.64380 1160
34.66435 1140
34.68489 1115
34.70544 1185
34.72599 1166
34.74654 1189
34.76709 1155
34.78763 1140
34.80818 1131
34.82873 1134
34.84928 1151
34.86982 1182
34.89037 1158
34.91092 1127
34.93147 1173
34.95201 1126
34.97256 1122
34.99311 1097
35.01366 1140
35.03421 1142
35.05476 1153
35.07530 1134
35.09585 1202
35.11640 1116
35.13695 1179
35.15749 1094
35.17804 1115
35.19859 1183
35.21914 1185
35.23968 1205
35.26023 1130
35.28078 1078
35.30133 1204
35.32188 1152
35.34242 1193
35.36297 1170
35.38352 1138
35.40407 1145
35.42461 1156
35.44516 1154
35.46571 1178
35.48626 1167
35.50680 1161
35.52735 1189
35.54790 1140
35.56845 1140
35.58900 1136
35.60955 1185
35.63009 1151
35.65064 1161
35.67119 1181
35.69174 1138
35.71228 1122
35.73283 1167
35.75338 1103
35.77393 1179
35.79447 1207
35.81502 1136
35.83557 1111
35.85612 1149
35.87667 1102
35.89721 1114
35.91776 1112
35.93831 1176
35.95886 1127
35.97940 1190
35.99995 1227
36.02050 1187
36.04105 1098
36.0616  1163
36.08215 1229
36.10269 1169
36.12324 1174
36.14379 1161
36.16434 1154
36.18488 1143
36.20543 1173
36.22598 1143
36.24653 1116
36.26707 1150
36.28762 1197
36.30817 1167
36.32872 1175
36.34927 1175
36.36982 1128
36.39036 1116
36.41091 1177
36.43146 1188
36.45200 1115
36.47255 1094
36.49310 1170
36.51365 1152
36.53419 1150
36.55474 1184
36.57529 1171
36.59584 1205
36.61639 1142
36.63694 1186
36.65748 1205
36.67803 1192
36.69858 1143
36.71913 1114
36.73967 1164
36.76022 1166
36.78077 1190
36.80132 1119
36.82186 1149
36.84241 1178
36.86296 1167
36.88351 1070
36.90406 1140
36.92461 1135
36.94515 1146
36.96570 1144
36.98625 1150
37.00680 1191
37.02734 1185
37.04789 1190
37.06844 1154
37.08898 1120
37.10953 1163
37.13008 1149
37.15063 1192
37.17118 1144
37.19173 1171
37.21227 1152
37.23282 1151
37.25337 1102
37.27392 1139
37.29446 1094
37.31501 1127
37.33556 1176
37.35611 1128
37.37665 1145
37.39720 1144
37.41775 1175
37.43830 1152
37.45885 1154
37.47940 1125
37.49994 1136
37.52049 1136
37.54104 1123
37.56159 1169
37.58213 1184
37.60268 1182
37.62323 1198
37.64378 1154
37.66433 1124
37.68487 1167
37.70542 1180
37.72597 1163
37.74652 1176
37.76706 1142
37.78761 1081
37.80816 1157
37.82871 1176
37.84925 1117
37.86980 1208
37.89035 1126
37.91090 1164
37.93145 1144
37.952   1146
37.97254 1234
37.99309 1210
38.01364 1173
38.03419 1131
38.05473 1162
38.07528 1192
38.09583 1188
38.11638 1177
38.13692 1124
38.15747 1218
38.17802 1182
38.19857 1126
38.21912 1199
38.23966 1143
38.26021 1213
38.28076 1137
38.30131 1172
38.32185 1195
38.34240 1144
38.36295 1093
38.38350 1113
38.40404 1132
38.42459 1116
38.44514 1129
38.46569 1132
38.48624 1161
38.50679 1136
38.52733 1184
38.54788 1119
38.56843 1151
38.58898 1142
38.60952 1149
38.63007 1197
38.65062 1144
38.67117 1172
38.69171 1184
38.71226 1148
38.73281 1103
38.75336 1138
38.77391 1149
38.79445 1149
38.81500 1153
38.83555 1109
38.85610 1104
38.87664 1169
38.89719 1205
38.91774 1171
38.93829 1143
38.95883 1150
38.97938 1101
38.99993 1142
39.02048 1161
39.04103 1125
39.06158 1185
39.08212 1172
39.10267 1147
39.12322 1217
39.14377 1152
39.16431 1149
39.18486 1179
39.20541 1125
39.22596 1219
39.24651 1124
39.26705 1171
39.28760 1189
39.30815 1118
39.32870 1151
39.34925 1178
39.36979 1150
39.39034 1106
39.41089 1137
39.43143 1154
39.45198 1146
39.47253 1191
39.49308 1137
39.51363 1140
39.53418 1155
39.55472 1168
39.57527 1167
39.59582 1114
39.61637 1200
39.63691 1080
39.65746 1161
39.67801 1137
39.69856 1097
39.71910 1150
39.73965 1124
39.76020 1154
39.78075 1184
39.8013  1108
39.82185 1169
39.84239 1185
39.86294 1184
39.88349 1171
39.90404 1122
39.92458 1118
39.94513 1170
39.96568 1167
39.98622 1191
40.00677 1150
40.02732 1139
40.04787 1123
40.06842 1141
40.08897 1176
40.10951 1119
40.13006 1240
40.15061 1182
40.17116 1177
40.19170 1120
40.21225 1087
40.23280 1166
40.25335 1158
40.27389 1128
40.29444 1178
40.31499 1203
40.33554 1229
40.35609 1169
40.37664 1198
40.39718 1187
40.41773 1180
40.43828 1185
40.45883 1178
40.47937 1205
40.49992 1127
40.52047 1212
40.54101 1200
40.56156 1130
40.58211 1073
40.60266 1125
40.62321 1104
40.64376 1187
40.66430 1161
40.68485 1184
40.70540 1109
40.72595 1144
40.74649 1147
40.76704 1209
40.78759 1104
40.80814 1195
40.82869 1156
40.84923 1142
40.86978 1130
40.89033 1139
40.91088 1164
40.93143 1158
40.95197 1153
40.97252 1090
40.99307 1123
41.01362 1191
41.03416 1136
41.05471 1060
41.07526 1130
41.09581 1155
41.11636 1146
41.13690 1100
41.15745 1128
41.17800 1128
41.19855 1156
41.21909 1196
41.23964 1102
41.26019 1109
41.28074 1158
41.30128 1162
41.32183 1144
41.34238 1154
41.36293 1104
41.38348 1137
41.40403 1178
41.42457 1214
41.44512 1066
41.46567 1158
41.48622 1112
41.50676 1185
41.52731 1172
41.54786 1157
41.56841 1133
41.58895 1152
41.60950 1159
41.63005 1150
41.65060 1106
41.67115 1157
41.69169 1124
41.71224 1158
41.73279 1157
41.75334 1173
41.77388 1157
41.79443 1152
41.81498 1171
41.83553 1209
41.85607 1161
41.87662 1118
41.89717 1129
41.91772 1176
41.93827 1178
41.95882 1184
41.97936 1145
41.99991 1062
42.02046 1100
42.04101 1171
42.06155 1162
42.08210 1183
42.10265 1222
42.12320 1168
42.14374 1111
42.16429 1146
42.18484 1178
42.20539 1174
42.22594 1148
42.24649 1153
42.26703 1135
42.28758 1123
42.30813 1133
42.32867 1124
42.34922 1138
42.36977 1163
42.39032 1171
42.41087 1164
42.43141 1185
42.45196 1124
42.47251 1175
42.49306 1121
42.51361 1088
42.53415 1160
42.55470 1151
42.57525 1168
42.59580 1154
42.61634 1164
42.63689 1216
42.65744 1184
42.67799 1062
42.69854 1121
42.71909 1236
42.73963 1156
42.76018 1184
42.78073 1163
42.80128 1168
42.82182 1100
42.84237 1170
42.86292 1150
42.88346 1153
42.90401 1157
42.92456 1190
42.94511 1186
42.96566 1184
42.98621 1212
43.00675 1212
43.02730 1134
43.04785 1158
43.06840 1125
43.08894 1166
43.10949 1179
43.13004 1191
43.15059 1232
43.17113 1195
43.19168 1238
43.21223 1119
43.23278 1211
43.25333 1255
43.27388 1186
43.29442 1222
43.31497 1240
43.33552 1200
43.35607 1230
43.37661 1174
43.39716 1232
43.41771 1190
43.43826 1225
43.45880 1234
43.47935 1242
43.49990 1230
43.52045 1171
43.541   1158
43.56154 1252
43.58209 1275
43.60264 1178
43.62319 1134
43.64373 1236
43.66428 1211
43.68483 1267
43.70538 1225
43.72592 1222
43.74647 1201
43.76702 1220
43.78757 1186
43.80812 1247
43.82867 1240
43.84921 1195
43.86976 1285
43.89031 1279
43.91086 1269
43.93140 1244
43.95195 1229
43.97250 1275
43.99305 1279
44.01359 1172
44.03414 1238
44.05469 1209
44.07524 1255
44.09579 1231
44.11633 1323
44.13688 1255
44.15743 1278
44.17798 1290
44.19852 1299
44.21907 1319
44.23962 1358
44.26017 1383
44.28072 1473
44.30127 1388
44.32181 1497
44.34236 1543
44.36291 1466
44.38346 1646
44.40400 1760
44.42455 1861
44.44510 1941
44.46565 2028
44.48619 2198
44.50674 2343
44.52729 2524
44.54784 2875
44.56839 3235
44.58894 3607
44.60948 4065
44.63003 4656
44.65058 4894
44.67112 4972
44.69167 4794
44.71222 4675
44.73277 4564
44.75331 4318
44.77386 4033
44.79441 3683
44.81496 3458
44.83551 2933
44.85606 2658
44.87660 2398
44.89715 2083
44.91770 1954
44.93825 1738
44.95879 1648
44.97934 1519
44.99989 1507
45.02044 1447
45.04098 1389
45.06153 1359
45.08208 1308
45.10263 1391
45.12318 1358
45.14373 1187
45.16427 1265
45.18482 1324
45.20537 1237
45.22591 1235
45.24646 1262
45.26701 1265
45.28756 1261
45.30810 1163
45.32865 1177
45.34920 1207
45.36975 1193
45.39030 1237
45.41085 1202
45.43139 1141
45.45194 1210
45.47249 1175
45.49304 1227
45.51358 1173
45.53413 1266
45.55468 1180
45.57523 1178
45.59577 1199
45.61632 1185
45.63687 1187
45.65742 1204
45.67797 1208
45.69852 1110
45.71906 1167
45.73961 1219
45.76016 1190
45.78070 1157
45.80125 1213
45.82180 1138
45.84235 1192
45.8629  1156
45.88345 1168
45.90399 1227
45.92454 1117
45.94509 1168
45.96564 1184
45.98618 1135
46.00673 1251
46.02728 1182
46.04783 1180
46.06837 1136
46.08892 1188
46.10947 1176
46.13002 1176
46.15057 1126
46.17112 1179
46.19166 1150
46.21221 1171
46.23276 1176
46.25331 1147
46.27385 1229
46.29440 1166
46.31495 1105
46.33550 1146
46.35604 1182
46.37659 1143
46.39714 1160
46.41769 1204
46.43824 1205
46.45878 1224
46.47933 1177
46.49988 1192
46.52043 1158
46.54097 1220
46.56152 1126
46.58207 1138
46.60262 1148
46.62316 1223
46.64371 1180
46.66426 1181
46.68481 1146
46.70536 1173
46.72591 1201
46.74645 1212
46.76700 1141
46.78755 1141
46.80810 1137
46.82864 1225
46.84919 1137
46.86974 1192
46.89029 1167
46.91083 1101
46.93138 1153
46.95193 1191
46.97248 1197
46.99303 1162
47.01357 1228
47.03412 1169
47.05467 1200
47.07522 1182
47.09576 1221
47.11631 1153
47.13686 1155
47.15741 1141
47.17795 1182
47.19850 1194
47.21905 1173
47.23960 1128
47.26015 1139
47.28070 1184
47.30124 1126
47.32179 1220
47.34234 1193
47.36289 1202
47.38343 1214
47.40398 1187
47.42453 1128
47.44508 1146
47.46563 1175
47.48617 1171
47.50672 1179
47.52727 1148
47.54782 1152
47.56836 1161
47.58891 1185
47.60946 1156
47.63001 1124
47.65055 1096
47.67110 1147
47.69165 1201
47.71220 1236
47.73275 1136
47.7533  1189
47.77384 1155
47.79439 1200
47.81494 1151
47.83549 1177
47.85603 1131
47.87658 1169
47.89713 1225
47.91768 1178
47.93822 1109
47.95877 1181
47.97932 1130
47.99987 1171
48.02042 1159
48.04097 1148
48.06151 1169
48.08206 1197
48.10261 1190
48.12315 1173
48.14370 1142
48.16425 1083
48.18480 1153
48.20534 1146
48.22589 1149
48.24644 1173
48.26699 1154
48.28754 1231
48.30809 1171
48.32863 1203
48.34918 1193
48.36973 1205
48.39028 1194
48.41082 1155
48.43137 1179
48.45192 1166
48.47247 1200
48.49301 1193
48.51356 1147
48.53411 1131
48.55466 1168
48.57521 1166
48.59576 1160
48.61630 1155
48.63685 1107
48.65740 1188
48.67795 1154
48.69849 1096
48.71904 1122
48.73959 1173
48.76013 1153
48.78068 1199
48.80123 1122
48.82178 1146
48.84233 1172
48.86288 1187
48.88342 1223
48.90397 1179
48.92452 1170
48.94507 1147
48.96561 1091
48.98616 1145
49.00671 1187
49.02726 1171
49.04781 1104
49.06835 1191
49.08890 1242
49.10945 1153
49.13000 1100
49.15055 1164
49.17109 1143
49.19164 1149
49.21219 1105
49.23274 1165
49.25328 1167
49.27383 1212
49.29438 1063
49.31493 1200
49.33548 1132
49.35602 1208
49.37657 1123
49.39712 1206
49.41767 1156
49.43821 1203
49.45876 1067
49.47931 1235
49.49986 1142
49.52040 1105
49.54095 1167
49.56150 1133
49.58205 1209
49.6026  1119
49.62315 1114
49.64369 1101
49.66424 1187
49.68479 1190
49.70534 1170
49.72588 1177
49.74643 1094
49.76698 1199
49.78753 1231
49.80807 1159
49.82862 1215
49.84917 1233
49.86972 1154
49.89027 1120
49.91081 1197
49.93136 1192
49.95191 1146
49.97246 1199
49.99300 1152
50.01355 1157
50.03410 1097
50.05465 1154
50.07519 1075
50.09574 1171
50.11629 1135
50.13684 1143
50.15739 1178
50.17794 1131
50.19848 1141
50.21903 1197
50.23958 1145
50.26013 1121
50.28067 1172
50.30122 1148
50.32177 1172
50.34232 1173
50.36286 1145
50.38341 1165
50.40396 1129
50.42451 1115
50.44506 1143
50.46560 1195
50.48615 1142
50.50670 1182
50.52725 1115
50.54779 1220
50.56834 1144
50.58889 1133
50.60944 1150
50.62999 1145
50.65053 1193
50.67108 1201
50.69163 1197
50.71218 1171
50.73273 1120
50.75327 1143
50.77382 1193
50.79437 1172
50.81492 1174
50.83546 1204
50.85601 1245
50.87656 1204
50.89711 1217
50.91766 1193
50.93821 1160
50.95875 1163
50.97930 1138
50.99985 1139
51.02040 1156
51.04094 1178
51.06149 1165
51.08204 1063
51.10258 1148
51.12313 1218
51.14368 1159
51.16423 1193
51.18478 1189
51.20533 1210
51.22587 1197
51.24642 1174
51.26697 1205
51.28752 1181
51.30806 1183
51.32861 1127
51.34916 1164
51.36971 1190
51.39025 1206
51.41080 1106
51.43135 1202
51.45190 1164
51.47245 1142
51.493   1153
51.51354 1154
51.53409 1148
51.55464 1138
51.57519 1168
51.59573 1206
51.61628 1196
51.63683 1227
51.65737 1223
51.67792 1115
51.69847 1166
51.71902 1141
51.73957 1113
51.76012 1159
51.78066 1128
51.80121 1125
51.82176 1165
51.84231 1237
51.86285 1218
51.88340 1178
51.90395 1155
51.92450 1143
51.94504 1198
51.96559 1170
51.98614 1229
52.00669 1133
52.02724 1160
52.04779 1220
52.06833 1208
52.08888 1177
52.10943 1176
52.12998 1173
52.15052 1141
52.17107 1204
52.19162 1172
52.21217 1157
52.23271 1149
52.25326 1163
52.27381 1122
52.29436 1176
52.31491 1178
52.33545 1221
52.35600 1190
52.37655 1202
52.39710 1174
52.41764 1247
52.43819 1221
52.45874 1192
52.47929 1180
52.49984 1189
52.52039 1137
52.54093 1151
52.56148 1179
52.58203 1165
52.60258 1135
52.62312 1161
52.64367 1187
52.66422 1213
52.68477 1218
52.70531 1125
52.72586 1140
52.74641 1154
52.76696 1202
52.78751 1135
52.80805 1208
52.82860 1157
52.84915 1136
52.86970 1193
52.89024 1198
52.91079 1154
52.93134 1142
52.95189 1247
52.97243 1186
52.99298 1125
53.01353 1164
53.03408 1156
53.05463 1141
53.07518 1149
53.09572 1155
53.11627 1157
53.13682 1166
53.15737 1217
53.17791 1219
53.19846 1155
53.21901 1173
53.23956 1142
53.26010 1147
53.28065 1197
53.30120 1157
53.32175 1194
53.3423  1199
53.36285 1228
53.38339 1159
53.40394 1109
53.42449 1160
53.44503 1137
53.46558 1115
53.48613 1180
53.50668 1157
53.52722 1181
53.54777 1143
53.56832 1205
53.58887 1159
53.60942 1171
53.62997 1162
53.65051 1139
53.67106 1184
53.69161 1183
53.71216 1153
53.73270 1187
53.75325 1097
53.77380 1112
53.79435 1122
53.81489 1087
53.83544 1119
53.85599 1183
53.87654 1142
53.89709 1192
53.91764 1152
53.93818 1142
53.95873 1107
53.97928 1185
53.99982 1134
54.02037 1215
54.04092 1074
54.06147 1206
54.08202 1125
54.10257 1160
54.12311 1243
54.14366 1136
54.16421 1166
54.18476 1251
54.20530 1213
54.22585 1144
54.24640 1166
54.26695 1198
54.28749 1176
54.30804 1193
54.32859 1168
54.34914 1152
54.36969 1135
54.39024 1180
54.41078 1184
54.43133 1157
54.45188 1200
54.47243 1116
54.49297 1138
54.51352 1139
54.53407 1185
54.55461 1211
54.57516 1136
54.59571 1101
54.61626 1202
54.63681 1131
54.65736 1139
54.67790 1143
54.69845 1094
54.71900 1119
54.73955 1125
54.76009 1226
54.78064 1136
54.80119 1162
54.82174 1168
54.84228 1171
54.86283 1121
54.88338 1152
54.90393 1182
54.92448 1187
54.94503 1185
54.96557 1128
54.98612 1251
55.00667 1113
55.02722 1150
55.04776 1198
55.06831 1176
55.08886 1128
55.10941 1168
55.12995 1127
55.15050 1140
55.17105 1149
55.19160 1193
55.21215 1178
55.23269 1204
55.25324 1132
55.27379 1182
55.29434 1154
55.31488 1166
55.33543 1204
55.35598 1130
55.37653 1212
55.39707 1133
55.41762 1156
55.43817 1204
55.45872 1167
55.47927 1200
55.49982 1219
55.52036 1210
55.54091 1218
55.56146 1206
55.58201 1179
55.60255 1125
55.62310 1181
55.64365 1111
55.66420 1152
55.68475 1097
55.70529 1128
55.72584 1105
55.74639 1161
55.76694 1167
55.78748 1177
55.80803 1189
55.82858 1204
55.84913 1257
55.86967 1109
55.89022 1177
55.91077 1123
55.93132 1122
55.95187 1180
55.97242 1147
55.99296 1206
56.01351 1110
56.03406 1084
56.05461 1154
56.07515 1147
56.09570 1136
56.11625 1201
56.13680 1123
56.15734 1155
56.17789 1176
56.19844 1141
56.21899 1106
56.23954 1128
56.26009 1160
56.28063 1195
56.30118 1156
56.32173 1156
56.34227 1203
56.36282 1165
56.38337 1124
56.40392 1183
56.42446 1196
56.44501 1157
56.46556 1140
56.48611 1195
56.50666 1254
56.52721 1116
56.54775 1111
56.56830 1178
56.58885 1152
56.60940 1139
56.62994 1177
56.65049 1223
56.67104 1186
56.69159 1133
56.71213 1129
56.73268 1177
56.75323 1162
56.77378 1138
56.79433 1161
56.81488 1136
56.83542 1228
56.85597 1236
56.87652 1120
56.89706 1190
56.91761 1171
56.93816 1201
56.95871 1118
56.97925 1204
56.99980 1139
57.02035 1177
57.04090 1171
57.06145 1218
57.08200 1132
57.10254 1167
57.12309 1130
57.14364 1179
57.16419 1148
57.18473 1155
57.20528 1130
57.22583 1175
57.24638 1199
57.26693 1175
57.28747 1178
57.30802 1155
57.32857 1163
57.34912 1187
57.36967 1146
57.39021 1208
57.41076 1138
57.43131 1209
57.45186 1139
57.47240 1189
57.49295 1105
57.51350 1151
57.53405 1132
57.5546  1147
57.57514 1187
57.59569 1202
57.61624 1196
57.63679 1104
57.65733 1197
57.67788 1155
57.69843 1116
57.71898 1200
57.73952 1152
57.76007 1269
57.78062 1119
57.80117 1090
57.82172 1179
57.84227 1122
57.86281 1107
57.88336 1096
57.90391 1244
57.92446 1195
57.94500 1159
57.96555 1164
57.98610 1139
58.00665 1152
58.02719 1172
58.04774 1135
58.06829 1135
58.08884 1168
58.10939 1189
58.12993 1182
58.15048 1110
58.17103 1164
58.19158 1192
58.21212 1183
58.23267 1126
58.25322 1180
58.27377 1166
58.29431 1169
58.31486 1148
58.33541 1192
58.35596 1181
58.37651 1140
58.39706 1178
58.41760 1168
58.43815 1155
58.45870 1112
58.47925 1177
58.49979 1116
58.52034 1128
58.54089 1083
58.56144 1127
58.58198 1136
58.60253 1154
58.62308 1178
58.64363 1177
58.66418 1196
58.68472 1188
58.70527 1120
58.72582 1211
58.74637 1180
58.76691 1088
58.78746 1140
58.80801 1180
58.82856 1179
58.84911 1188
58.86965 1180
58.89020 1161
58.91075 1136
58.93130 1180
58.95185 1246
58.97239 1152
58.99294 1116
59.01349 1147
59.03404 1205
59.05458 1204
59.07513 1131
59.09568 1195
59.11623 1163
59.13678 1114
59.15733 1159
59.17787 1124
59.19842 1163
59.21897 1156
59.23951 1168
59.26006 1170
59.28061 1166
59.30116 1190
59.32170 1108
59.34225 1157
59.36280 1126
59.38335 1112
59.4039  1090
59.42445 1219
59.44499 1176
59.46554 1225
59.48609 1218
59.50664 1158
59.52718 1158
59.54773 1105
59.56828 1123
59.58883 1148
59.60937 1132
59.62992 1135
59.65047 1190
59.67102 1185
59.69157 1146
59.71212 1142
59.73266 1165
59.75321 1161
59.77376 1159
59.79431 1188
59.81485 1226
59.83540 1157
59.85595 1179
59.87649 1178
59.89704 1202
59.91759 1203
59.93814 1131
59.95869 1163
59.97924 1120
59.99978 1125
60.02033 1185
60.04088 1161
60.06143 1133
60.08197 1130
60.10252 1239
60.12307 1170
60.14362 1189
60.16416 1167
60.18471 1126
60.20526 1118
60.22581 1108
60.24636 1190
60.26691 1155
60.28745 1146
60.30800 1160
60.32855 1134
60.34910 1206
60.36964 1158
60.39019 1149
60.41074 1131
60.43129 1151
60.45183 1173
60.47238 1157
60.49293 1216
60.51348 1176
60.53403 1143
60.55457 1163
60.57512 1182
60.59567 1190
60.61622 1167
60.63676 1181
60.65731 1153
60.67786 1165
60.69841 1062
60.71896 1158
60.73951 1182
60.76005 1124
60.78060 1139
60.80115 1112
60.82170 1209
60.84224 1159
60.86279 1134
60.88334 1168
60.90389 1184
60.92443 1119
60.94498 1092
60.96553 1122
60.98608 1097
61.00663 1130
61.02717 1195
61.04772 1151
61.06827 1162
61.08882 1116
61.10936 1114
61.12991 1168
61.15046 1200
61.17101 1088
61.19155 1113
61.21210 1132
61.23265 1142
61.25320 1070
61.27375 1140
61.2943  1134
61.31484 1082
61.33539 1182
61.35594 1123
61.37649 1134
61.39703 1181
61.41758 1134
61.43813 1109
61.45868 1161
61.47922 1206
61.49977 1150
61.52032 1163
61.54087 1129
61.56142 1138
61.58196 1078
61.60251 1096
61.62306 1196
61.64361 1143
61.66415 1191
61.68470 1167
61.70525 1167
61.72580 1163
61.74634 1172
61.76689 1127
61.78744 1136
61.80799 1115
61.82854 1124
61.84909 1073
61.86963 1124
61.89018 1136
61.91073 1162
61.93128 1063
61.95182 1138
61.97237 1178
61.99292 1118
62.01347 1141
62.03401 1171
62.05456 1114
62.07511 1162
62.09566 1204
62.11621 1132
62.13676 1086
62.15730 1100
62.17785 1136
62.19840 1128
62.21894 1117
62.23949 1140
62.26004 1147
62.28059 1148
62.30114 1156
62.32169 1130
62.34223 1148
62.36278 1139
62.38333 1131
62.40388 1146
62.42442 1117
62.44497 1133
62.46552 1105
62.48607 1166
62.50661 1123
62.52716 1173
62.54771 1083
62.56826 1112
62.58881 1164
62.60936 1103
62.62990 1104
62.65045 1128
62.67100 1110
62.69155 1151
62.71209 1114
62.73264 1106
62.75319 1086
62.77373 1109
62.79428 1164
62.81483 1141
62.83538 1152
62.85593 1120
62.87648 1192
62.89702 1173
62.91757 1172
62.93812 1143
62.95867 1146
62.97921 1116
62.99976 1156
63.02031 1181
63.04086 1139
63.06140 1149
63.08195 1144
63.10250 1135
63.12305 1150
63.1436  1121
63.16415 1143
63.18469 1138
63.20524 1135
63.22579 1122
63.24634 1133
63.26688 1152
63.28743 1118
63.30798 1133
63.32852 1176
63.34907 1112
63.36962 1143
63.39017 1136
63.41072 1135
63.43127 1142
63.45181 1113
63.47236 1180
63.49291 1133
63.51346 1150
63.53400 1094
63.55455 1088
63.57510 1175
63.59565 1076
63.61619 1180
63.63674 1080
63.65729 1162
63.67784 1147
63.69839 1128
63.71894 1120
63.73948 1116
63.76003 1138
63.78058 1098
63.80113 1145
63.82167 1128
63.84222 1081
63.86277 1127
63.88332 1138
63.90387 1142
63.92441 1110
63.94496 1204
63.96551 1119
63.98606 1154
64.00660 1175
64.02715 1083
64.04770 1098
64.06825 1057
64.08879 1094
64.10934 1197
64.12989 1206
64.15044 1148
64.17099 1127
64.19153 1173
64.21209 1136
64.23263 1154
64.25318 1109
64.27372 1139
64.29428 1124
64.31482 1162
64.33537 1234
64.35591 1144
64.37647 1169
64.39701 1162
64.41756 1149
64.43811 1157
64.45866 1179
64.47921 1220
64.49975 1175
64.52030 1223
64.54084 1159
64.56140 1207
64.58194 1144
64.60249 1130
64.62303 1175
64.64359 1183
64.66413 1197
64.68468 1133
64.70523 1227
64.72578 1164
64.74633 1193
64.76687 1185
64.78742 1181
64.80797 1228
64.82852 1233
64.84906 1225
64.86961 1219
64.89016 1299
64.91071 1280
64.93125 1311
64.95180 1233
64.97235 1273
64.99290 1297
65.01345 1265
65.03399 1313
65.05455 1291
65.07509 1332
65.09564 1309
65.11618 1316
65.13673 1249
65.15728 1211
65.17783 1257
65.19838 1221
65.21892 1206
65.23947 1233
65.26002 1199
65.28057 1247
65.30111 1226
65.32167 1184
65.34221 1205
65.36276 1163
65.38330 1222
65.40386 1202
65.42440 1240
65.44495 1189
65.4655  1155
65.48605 1145
65.50659 1082
65.52714 1159
65.54769 1103
65.56824 1145
65.58879 1174
65.60933 1174
65.62988 1140
65.65043 1115
65.67098 1136
65.69152 1113
65.71207 1168
65.73262 1132
65.75317 1144
65.77372 1224
65.79426 1214
65.81481 1085
65.83536 1168
65.85591 1130
65.87645 1181
65.89700 1118
65.91755 1124
65.93810 1124
65.95864 1100
65.97919 1148
65.99974 1122
66.02029 1030
66.04084 1143
66.06138 1103
66.08194 1148
66.10248 1105
66.12303 1121
66.14357 1103
66.16413 1177
66.18467 1113
66.20522 1129
66.22576 1122
66.24631 1248
66.26686 1101
66.28741 1138
66.30796 1143
66.32850 1115
66.34906 1084
66.36960 1177
66.39015 1138
66.41069 1101
66.43125 1117
66.45179 1164
66.47234 1160
66.49288 1129
66.51344 1068
66.53398 1130
66.55453 1124
66.57508 1128
66.59563 1136
66.61618 1112
66.63672 1171
66.65727 1139
66.67782 1168
66.69837 1099
66.71891 1126
66.73946 1154
66.76001 1142
66.78056 1152
66.80110 1076
66.82165 1094
66.84220 1088
66.86275 1065
66.88330 1165
66.90384 1087
66.92439 1133
66.94494 1086
66.96549 1094
66.98603 1122
67.00658 1115
67.02713 1136
67.04768 1105
67.06823 1046
67.08877 1125
67.10932 1105
67.12987 1104
67.15042 1083
67.17096 1140
67.19152 1085
67.21206 1139
67.23261 1114
67.25315 1138
67.27371 1169
67.29425 1150
67.31480 1152
67.33535 1169
67.35590 1183
67.37645 1138
67.39699 1164
67.41754 1131
67.43808 1127
67.45864 1064
67.47918 1132
67.49973 1071
67.52027 1047
67.54083 1166
67.56137 1157
67.58192 1070
67.60247 1117
67.62302 1154
67.64357 1148
67.66411 1143
67.68466 1144
67.70521 1100
67.72576 1072
67.74630 1176
67.76685 1138
67.78740 1099
67.80795 1127
67.82849 1096
67.84904 1155
67.86959 1112
67.89014 1112
67.91069 1169
67.93123 1100
67.95179 1115
67.97233 1071
67.99288 1075
68.01342 1081
68.03397 1082
68.05452 1122
68.07507 1154
68.09561 1164
68.11616 1128
68.13671 1069
68.15726 1055
68.17781 1101
68.19835 1035
68.21891 1109
68.23945 1069
68.26000 1065
68.28054 1134
68.30110 1117
68.32164 1148
68.34219 1135
68.36274 1174
68.38329 1167
68.40383 1112
68.42438 1149
68.44493 1135
68.46548 1092
68.48603 1152
68.50657 1101
68.52712 1088
68.54767 1097
68.56822 1091
68.58876 1134
68.60931 1174
68.62986 1077
68.65041 1157
68.67095 1112
68.69150 1064
68.71205 1135
68.73260 1107
68.75315 1110
68.77369 1113
68.79424 1142
68.81479 1080
68.83534 1070
68.85588 1076
68.87643 1027
68.89698 1162
68.91753 1167
68.93808 1047
68.95862 1135
68.97917 1092
68.99972 1161
69.02027 1122
69.04081 1090
69.06137 1137
69.08191 1043
69.10246 1174
69.12300 1117
69.14356 1093
69.16410 1124
69.18465 1155
69.2052  1097
69.22574 1095
69.2463  1081
69.26684 1091
69.28739 1107
69.30793 1097
69.32849 1069
69.34903 1110
69.36958 1079
69.39012 1170
69.41068 1181
69.43122 1113
69.45177 1092
69.47232 1096
69.49287 1124
69.51342 1053
69.53396 1116
69.55451 1101
69.57506 1150
69.59561 1105
69.61615 1127
69.63670 1115
69.65725 1079
69.67780 1127
69.69834 1114
69.71889 1070
69.73944 1111
69.75999 1098
69.78054 1144
69.80108 1130
69.82163 1153
69.84218 1141
69.86273 1090
69.88327 1084
69.90382 1141
69.92437 1086
69.94492 1104
69.96546 1175
69.98601 1157
70.00656 1121
70.02711 1059
70.04766 1120
70.06820 1114
70.08876 1105
70.10930 1099
70.12985 1075
70.15039 1104
70.17095 1139
70.19149 1120
70.21204 1166
70.23259 1118
70.25314 1136
70.27368 1125
70.29423 1115
70.31478 1125
70.33532 1092
70.35588 1113
70.37642 1131
70.39697 1167
70.41751 1098
70.43807 1171
70.45861 1107
70.47916 1089
70.49971 1082
70.52026 1103
70.54081 1104
70.56135 1131
70.58190 1118
70.60245 1087
70.62300 1068
70.64354 1127
70.66409 1081
70.68464 1130
70.70519 1096
70.72573 1128
70.74628 1164
70.76683 1067
70.78738 1087
70.80793 1083
70.82847 1138
70.84903 1098
70.86957 1111
70.89012 1134
70.91066 1129
70.93121 1088
70.95176 1169
70.97231 1074
70.99285 1170
71.01340 1110
71.03395 1125
71.05450 1108
71.07505 1094
71.09559 1160
71.11615 1180
71.13669 1129
71.15724 1105
71.17778 1095
71.19834 1122
71.21888 1121
71.23943 1080
71.25997 1077
71.28053 1082
71.30107 1125
71.32162 1152
71.34217 1170
71.36272 1111
71.38327 1105
71.40381 1123
71.42436 1171
71.44491 1106
71.46546 1120
71.48600 1136
71.50655 1096
71.5271  1075
71.54765 1132
71.56819 1120
71.58874 1119
71.60929 1123
71.62984 1095
71.65039 1094
71.67093 1155
71.69148 1143
71.71203 1124
71.73258 1055
71.75312 1161
71.77367 1089
71.79422 1141
71.81477 1122
71.83532 1122
71.85586 1175
71.87641 1143
71.89696 1118
71.91751 1125
71.93805 1156
71.95861 1093
71.97915 1107
71.99970 1127
72.02024 1104
72.04080 1098
72.06134 1089
72.08189 1107
72.10244 1187
72.12298 1129
72.14353 1155
72.16408 1108
72.18463 1093
72.20517 1171
72.22573 1106
72.24627 1133
72.26682 1112
72.28736 1116
72.30792 1074
72.32846 1168
72.34901 1123
72.36956 1157
72.39011 1124
72.41066 1122
72.43120 1170
72.45175 1095
72.47230 1095
72.49285 1087
72.51339 1090
72.53394 1148
72.55449 1079
72.57504 1088
72.59558 1063
72.61613 1110
72.63668 1101
72.65723 1076
72.67778 1111
72.69832 1082
72.71887 1080
72.73942 1117
72.75997 1139
72.78051 1128
72.80106 1101
72.82161 1158
72.84216 1130
72.86270 1043
72.88325 1090
72.90380 1069
72.92435 1132
72.94490 1060
72.96544 1140
72.986   1052
73.00654 1131
73.02709 1078
73.04763 1122
73.06819 1093
73.08873 1095
73.10928 1106
73.12982 1113
73.15038 1101
73.17092 1141
73.19147 1138
73.21202 1147
73.23257 1118
73.25312 1151
73.27366 1094
73.29421 1113
73.31475 1081
73.33531 1103
73.35585 1132
73.37640 1101
73.39695 1220
73.41750 1130
73.43804 1102
73.45859 1154
73.47914 1138
73.49969 1117
73.52024 1148
73.54078 1130
73.56133 1145
73.58188 1105
73.60243 1165
73.62297 1160
73.64352 1098
73.66407 1132
73.68462 1110
73.70517 1122
73.72571 1115
73.74626 1070
73.76681 1036
73.78736 1124
73.80790 1095
73.82846 1082
73.84900 1107
73.86955 1038
73.89009 1122
73.91064 1070
73.93119 1198
73.95174 1072
73.97229 1089
73.99283 1140
74.01339 1135
74.03393 1112
74.05448 1104
74.07502 1092
74.09558 1124
74.11612 1122
74.13667 1140
74.15721 1071
74.17777 1124
74.19831 1146
74.21886 1148
74.23941 1082
74.25996 1125
74.28051 1103
74.30105 1125
74.32160 1167
74.34215 1095
74.36270 1084
74.38324 1156
74.40379 1155
74.42433 1157
74.44489 1130
74.46543 1144
74.48598 1117
74.50653 1107
74.52708 1187
74.54763 1163
74.56817 1095
74.58872 1133
74.60927 1133
74.62982 1049
74.65036 1122
74.67091 1049
74.69146 1135
74.71201 1087
74.73255 1110
74.75310 1094
74.77365 1118
74.79420 1104
74.81475 1106
74.83529 1143
74.85585 1148
74.87639 1107
74.89694 1106
74.91748 1122
74.93804 1139
74.95858 1152
74.97913 1088
74.99968 1044
75.02022 1118
75.04077 1107
75.06132 1123
75.08187 1114
75.10241 1122
75.12297 1071
75.14351 1129
75.16406 1112
75.18460 1062
75.20516 1098
75.22570 1054
75.24625 1107
75.2668  1098
75.28735 1140
75.30789 1075
75.32844 1050
75.34899 1206
75.36954 1180
75.39009 1074
75.41063 1091
75.43118 1071
75.45173 1125
75.47228 1093
75.49282 1149
75.51337 1159
75.53392 1142
75.55447 1062
75.57502 1132
75.59556 1096
75.61611 1104
75.63666 1127
75.65721 1114
75.67775 1096
75.69830 1095
75.71885 1150
75.73940 1084
75.75994 1149
75.78049 1088
75.80104 1161
75.82159 1070
75.84214 1081
75.86268 1159
75.88324 1120
75.90378 1076
75.92433 1140
75.94487 1120
75.96543 1074
75.98597 1129
76.00652 1122
76.02706 1053
76.04762 1087
76.06816 1082
76.08871 1091
76.10926 1166
76.12981 1119
76.15036 1086
76.17090 1094
76.19145 1132
76.21199 1112
76.23255 1097
76.25309 1129
76.27364 1173
76.29418 1105
76.31474 1087
76.33528 1119
76.35583 1085
76.37638 1120
76.39693 1126
76.41748 1111
76.43802 1109
76.45857 1141
76.47912 1060
76.49967 1117
76.52021 1144
76.54076 1111
76.56131 1090
76.58186 1103
76.60240 1081
76.62295 1052
76.64350 1152
76.66405 1125
76.68460 1056
76.70514 1165
76.7257  1079
76.74624 1119
76.76679 1095
76.78733 1160
76.80788 1149
76.82843 1087
76.84898 1037
76.86953 1152
76.89007 1141
76.91062 1161
76.93117 1143
76.95172 1081
76.97226 1133
76.99282 1051
77.01336 1128
77.03391 1090
77.05445 1077
77.07501 1116
77.09555 1122
77.11610 1113
77.13665 1046
77.15720 1176
77.17775 1075
77.19829 1077
77.21884 1094
77.23939 1061
77.25994 1101
77.28048 1093
77.30103 1108
77.32158 1153
77.34213 1084
77.36267 1135
77.38322 1138
77.40377 1133
77.42432 1068
77.44487 1081
77.46541 1158
77.48596 1133
77.50651 1156
77.52706 1116
77.54760 1100
77.56815 1129
77.58870 1197
77.60925 1120
77.62979 1078
77.65034 1043
77.67089 1144
77.69144 1169
77.71199 1049
77.73253 1115
77.75309 1114
77.77363 1121
77.79418 1122
77.81472 1140
77.83528 1186
77.85582 1129
77.87637 1091
77.89691 1090
77.91747 1138
77.93801 1158
77.95856 1163
77.97911 1072
77.99965 1164
78.02021 1168
78.04075 1115
78.06130 1082
78.08184 1107
78.10240 1143
78.12294 1132
78.14349 1096
78.16404 1138
78.18459 1137
78.20513 1069
78.22568 1143
78.24623 1208
78.26678 1042
78.28733 1128
78.30787 1080
78.32842 1114
78.34897 1093
78.36952 1129
78.39006 1083
78.41061 1110
78.43116 1058
78.45171 1123
78.47226 1093
78.49280 1149
78.51335 1178
78.53390 1114
78.55445 1074
78.57499 1147
78.59554 1074
78.61609 1138
78.63664 1119
78.65718 1134
78.67773 1153
78.69828 1129
78.71883 1152
78.73938 1104
78.75992 1118
78.78047 1081
78.80102 1134
78.82157 1118
78.84211 1135
78.86267 1153
78.88321 1118
78.90376 1158
78.92430 1130
78.94486 1181
78.96540 1110
78.98595 1176
79.0065  1155
79.02705 1086
79.0476  1078
79.06814 1150
79.08869 1085
79.10923 1153
79.12979 1134
79.15033 1140
79.17088 1105
79.19142 1140
79.21198 1126
79.23252 1139
79.25307 1101
79.27362 1103
79.29417 1098
79.31472 1127
79.33526 1121
79.35581 1131
79.37636 1113
79.39691 1109
79.41745 1140
79.43800 1189
79.45855 1066
79.47910 1132
79.49964 1123
79.52019 1063
79.54074 1128
79.56129 1098
79.58184 1145
79.60238 1105
79.62294 1109
79.64348 1119
79.66403 1125
79.68457 1123
79.70512 1156
79.72567 1112
79.74622 1113
79.76676 1078
79.78731 1099
79.80786 1144
79.82841 1113
79.84896 1132
79.86950 1100
79.89006 1165
79.91060 1150
79.93115 1080
79.95169 1083
79.97225 1111
79.99279 1096
80.01334 1076
80.03389 1117
80.05444 1127
80.07498 1054
80.09553 1165
80.11608 1130
80.13663 1086
80.15718 1102
80.17772 1092
80.19827 1136
80.21882 1092
80.23937 1125
80.25991 1106
80.28046 1101
80.30101 1143
80.32156 1115
80.34211 1181
80.36265 1181
80.38320 1152
80.40375 1134
80.42430 1131
80.44484 1076
80.46539 1110
80.48594 1133
80.50649 1112
80.52703 1143
80.54758 1094
80.56813 1150
80.58868 1097
80.60923 1087
80.62977 1149
80.65033 1098
80.67087 1103
80.69142 1107
80.71196 1100
80.73252 1088
80.75306 1133
80.77361 1087
80.79415 1110
80.81471 1140
80.83525 1127
80.85580 1106
80.87635 1130
80.89689 1084
80.91745 1154
80.93799 1101
80.95854 1158
80.97908 1081
80.99964 1154
81.02018 1130
81.04073 1157
81.06127 1123
81.08183 1095
81.10237 1117
81.12292 1115
81.14347 1143
81.16402 1167
81.18457 1107
81.20511 1111
81.22566 1106
81.24621 1078
81.26676 1100
81.28730 1198
81.30785 1150
81.32840 1157
81.34895 1144
81.36949 1060
81.39004 1071
81.41059 1154
81.43114 1054
81.45169 1113
81.47223 1162
81.49278 1140
81.51333 1094
81.53388 1117
81.55442 1064
81.57497 1181
81.59552 1155
81.61607 1132
81.63662 1159
81.65716 1230
81.67771 1165
81.69826 1214
81.71881 1162
81.73935 1124
81.75991 1160
81.78045 1224
81.80100 1087
81.82154 1199
81.84210 1204
81.86264 1197
81.88319 1121
81.90374 1151
81.92429 1227
81.94483 1196
81.96538 1254
81.98593 1157
82.00648 1214
82.02703 1214
82.04757 1241
82.06812 1222
82.08866 1314
82.10922 1295
82.12976 1251
82.15031 1336
82.17086 1338
82.19141 1337
82.21196 1385
82.23250 1453
82.25305 1427
82.27360 1530
82.29415 1432
82.31469 1447
82.33524 1400
82.35579 1464
82.37634 1436
82.39688 1483
82.41743 1454
82.43798 1448
82.45853 1374
82.47908 1478
82.49962 1386
82.52018 1342
82.54072 1389
82.56127 1367
82.58181 1375
82.60237 1326
82.62291 1342
82.64346 1375
82.66400 1328
82.68455 1285
82.70510 1321
82.72565 1255
82.74620 1258
82.76674 1308
82.7873  1193
82.80784 1224
82.82839 1166
82.84893 1204
82.86949 1209
82.89003 1198
82.91058 1217
82.93112 1238
82.95168 1153
82.97222 1070
82.99277 1091
83.01332 1144
83.03387 1180
83.05442 1086
83.07496 1157
83.09551 1086
83.11606 1143
83.13661 1179
83.15715 1080
83.17770 1159
83.19825 1146
83.21880 1155
83.23934 1128
83.25989 1181
83.28044 1112
83.30099 1153
83.32154 1027
83.34208 1115
83.36263 1082
83.38318 1181
83.40373 1115
83.42427 1086
83.44482 1109
83.46537 1151
83.48592 1110
83.50647 1084
83.52701 1099
83.54756 1153
83.56811 1144
83.58866 1143
83.60920 1140
83.62976 1107
83.65030 1150
83.67085 1101
83.69139 1148
83.71195 1140
83.73249 1102
83.75304 1081
83.77359 1130
83.79413 1165
83.81469 1142
83.83523 1131
83.85578 1176
83.87632 1121
83.89688 1130
83.91742 1173
83.93797 1128
83.95851 1101
83.97907 1086
83.99961 1169
84.02016 1097
84.04071 1043
84.06126 1076
84.08181 1060
84.10235 1115
84.12290 1107
84.14345 1181
84.16400 1109
84.18454 1121
84.20509 1099
84.22564 1141
84.24619 1110
84.26673 1100
84.28728 1087
84.30783 1086
84.32838 1071
84.34893 1105
84.36947 1093
84.39002 1113
84.41057 1087
84.43112 1086
84.45166 1162
84.47221 1134
84.49276 1107
84.51331 1086
84.53385 1138
84.55440 1108
84.57495 1132
84.59550 1143
84.61605 1132
84.63659 1141
84.65715 1078
84.67769 1132
84.69824 1157
84.71878 1098
84.73934 1130
84.75988 1085
84.78043 1111
84.80098 1087
84.82153 1164
84.84207 1097
84.86262 1123
84.88317 1083
84.90372 1160
84.92427 1094
84.94481 1088
84.96536 1080
84.98590 1102
85.00646 1104
85.02700 1140
85.04755 1163
85.0681  1083
85.08865 1147
85.1092  1129
85.12974 1170
85.15029 1155
85.17084 1162
85.19139 1155
85.21193 1132
85.23248 1096
85.25303 1154
85.27358 1127
85.29412 1107
85.31467 1089
85.33522 1061
85.35577 1127
85.37632 1096
85.39686 1154
85.41741 1131
85.43796 1119
85.45851 1128
85.47905 1167
85.49961 1102
85.52015 1089
85.54070 1120
85.56124 1090
85.58179 1084
85.60234 1058
85.62289 1126
85.64344 1144
85.66398 1098
85.68454 1133
85.70508 1112
85.72563 1121
85.74617 1201
85.76673 1139
85.78727 1124
85.80782 1126
85.82836 1120
85.84892 1194
85.86946 1089
85.89001 1129
85.91056 1135
85.93111 1121
85.95166 1101
85.97220 1188
85.99275 1104
86.01330 1129
86.03385 1150
86.05439 1066
86.07494 1142
86.09549 1132
86.11604 1135
86.13658 1127
86.15713 1125
86.17768 1133
86.19823 1150
86.21878 1125
86.23932 1061
86.25987 1192
86.28042 1149
86.30097 1100
86.32151 1130
86.34206 1133
86.36261 1115
86.38316 1111
86.40370 1110
86.42425 1164
86.44480 1109
86.46535 1054
86.48590 1059
86.50644 1099
86.527   1121
86.54754 1114
86.56809 1151
86.58863 1102
86.60919 1126
86.62973 1146
86.65028 1090
86.67083 1083
86.69138 1140
86.71192 1095
86.73247 1182
86.75302 1125
86.77356 1205
86.79412 1125
86.81466 1139
86.83521 1080
86.85575 1054
86.87631 1084
86.89685 1123
86.91740 1185
86.93795 1079
86.95850 1100
86.97905 1072
86.99959 1117
87.02014 1079
87.04069 1073
87.06124 1085
87.08178 1093
87.10233 1096
87.12288 1162
87.14343 1123
87.16397 1087
87.18452 1092
87.20507 1104
87.22562 1113
87.24617 1096
87.26671 1080
87.28726 1056
87.30781 1080
87.32836 1125
87.34890 1110
87.36945 1166
87.39000 1087
87.41055 1074
87.43109 1101
87.45164 1117
87.47219 1129
87.49274 1131
87.51329 1119
87.53383 1084
87.55439 1136
87.57493 1119
87.59548 1108
87.61602 1079
87.63658 1135
87.65712 1115
87.67767 1177
87.69821 1126
87.71877 1182
87.73931 1053
87.75986 1110
87.78041 1138
87.80096 1104
87.82151 1093
87.84205 1142
87.86260 1138
87.88314 1145
87.90370 1140
87.92424 1150
87.94479 1114
87.96534 1169
87.98589 1113
88.00643 1087
88.02698 1118
88.04753 1112
88.06808 1228
88.08863 1108
88.10917 1112
88.12972 1124
88.15027 1198
88.17082 1102
88.19136 1091
88.21191 1098
88.23246 1084
88.25301 1160
88.27356 1146
88.29410 1071
88.31465 1129
88.33520 1078
88.35575 1203
88.37629 1136
88.39685 1130
88.41739 1126
88.43794 1097
88.45848 1120
88.47903 1089
88.49958 1124
88.52013 1140
88.54068 1118
88.56122 1097
88.58177 1107
88.60232 1112
88.62287 1110
88.64341 1057
88.66397 1080
88.68451 1104
88.70506 1140
88.72560 1117
88.74616 1081
88.76670 1139
88.78725 1134
88.8078  1128
88.82835 1115
88.8489  1098
88.86944 1078
88.88999 1123
88.91054 1088
88.93109 1161
88.95163 1100
88.97218 1170
88.99273 1146
89.01328 1192
89.03382 1116
89.05437 1137
89.07492 1194
89.09547 1140
89.11602 1065
89.13656 1107
89.15711 1150
89.17766 1117
89.19821 1136
89.21875 1107
89.23930 1120
89.25985 1135
89.28040 1143
89.30094 1118
89.32149 1138
89.34204 1159
89.36259 1163
89.38314 1156
89.40368 1102
89.42424 1150
89.44478 1116
89.46533 1109
89.48587 1120
89.50643 1124
89.52697 1023
89.54752 1019
89.56806 1153
89.58862 1155
89.60916 1100
89.62971 1122
89.65026 1126
89.67080 1153
89.69136 1114
89.71190 1094
89.73245 1089
89.75299 1156
89.77355 1041
89.79409 1069
89.81464 1179
89.83519 1123
89.85574 1102
89.87628 1086
89.89683 1077
89.91738 1101
89.93793 1078
89.95848 1125
89.97902 1130
89.99957 1086
90.02012 1104
90.04067 1187
90.06121 1193
90.08176 1092
90.10231 1089
90.12286 1116
90.14341 1141
90.16395 1084
90.18450 1159
90.20505 1063
90.22560 1168
90.24614 1103
90.26669 1075
90.28724 1143
90.30779 1168
90.32833 1032
90.34888 1092
90.36943 1132
90.38998 1115
90.41053 1069
90.43107 1125
90.45163 1170
90.47217 1098
90.49272 1126
90.51326 1143
90.53382 1149
90.55436 1188
90.57491 1126
90.59545 1173
90.61601 1104
90.63655 1184
90.65710 1101
90.67765 1118
90.69820 1119
90.71875 1064
90.73929 1149
90.75984 1099
90.78039 1144
90.80094 1141
90.82148 1124
90.84203 1152
90.86257 1125
90.88313 1142
90.90367 1120
90.92422 1121
90.94477 1133
90.96532 1181
90.98587 1090
91.00641 1164
91.02696 1130
91.04751 1066
91.06806 1116
91.08860 1055
91.10915 1130
91.12970 1177
91.15025 1053
91.17079 1130
91.19134 1136
91.21189 1163
91.23244 1148
91.25299 1146
91.27353 1172
91.29409 1136
91.31463 1155
91.33518 1122
91.35572 1108
91.37627 1157
91.39682 1122
91.41737 1128
91.43792 1172
91.45846 1108
91.47901 1157
91.49956 1163
91.52011 1134
91.54065 1100
91.56121 1131
91.58175 1099
91.60230 1130
91.62284 1105
91.64340 1026
91.66394 1084
91.68449 1117
91.70504 1128
91.72559 1087
91.74614 1184
91.76668 1117
91.78723 1146
91.80778 1158
91.82833 1119
91.84887 1174
91.86942 1132
91.88997 1113
91.91052 1038
91.93106 1103
91.95161 1149
91.97216 1122
91.99271 1087
92.01326 1127
92.03380 1102
92.05435 1128
92.07490 1085
92.09545 1114
92.11599 1123
92.13654 1054
92.15709 1108
92.17764 1135
92.19818 1087
92.21873 1086
92.23928 1171
92.25983 1113
92.28038 1093
92.30092 1031
92.32148 1069
92.34202 1132
92.36257 1124
92.38311 1149
92.40367 1147
92.42421 1118
92.44476 1130
92.46530 1126
92.48586 1139
92.50640 1071
92.52695 1087
92.54750 1084
92.56804 1071
92.5886  1082
92.60914 1138
92.62969 1071
92.65023 1088
92.67079 1096
92.69133 1107
92.71188 1103
92.73243 1042
92.75298 1153
92.77352 1071
92.79407 1076
92.81462 1180
92.83517 1131
92.85572 1053
92.87626 1163
92.89681 1180
92.91736 1067
92.93791 1145
92.95845 1111
92.97900 1107
92.99955 1160
93.02010 1072
93.04064 1115
93.06119 1129
93.08174 1149
93.10229 1157
93.12284 1051
93.14338 1105
93.16393 1108
93.18448 1111
93.20503 1098
93.22557 1176
93.24612 1097
93.26667 1074
93.28722 1145
93.30777 1104
93.32831 1112
93.34886 1129
93.36941 1179
93.38996 1116
93.41050 1149
93.43106 1052
93.45160 1075
93.47215 1148
93.49269 1112
93.51325 1205
93.53379 1143
93.55434 1076
93.57489 1127
93.59544 1126
93.61599 1149
93.63653 1130
93.65708 1111
93.67763 1145
93.69818 1128
93.71872 1161
93.73927 1084
93.75981 1096
93.78037 1184
93.80091 1096
93.82146 1074
93.84201 1126
93.86256 1111
93.88311 1101
93.90365 1140
93.92420 1124
93.94475 1153
93.96530 1144
93.98584 1113
94.00639 1128
94.02694 1178
94.04749 1111
94.06803 1118
94.08858 1132
94.10913 1121
94.12968 1051
94.15023 1155
94.17077 1072
94.19133 1087
94.21187 1158
94.23242 1111
94.25296 1110
94.27352 1129
94.29406 1115
94.31461 1144
94.33515 1102
94.35570 1090
94.37625 1084
94.39680 1163
94.41735 1175
94.43789 1111
94.45845 1219
94.47899 1119
94.49954 1036
94.52008 1056
94.54064 1117
94.56118 1083
94.58173 1090
94.60228 1095
94.62283 1120
94.64337 1182
94.66392 1096
94.68447 1081
94.70502 1158
94.72557 1109
94.74611 1082
94.76666 1178
94.78721 1098
94.80776 1208
94.82830 1107
94.84885 1098
94.86940 1149
94.88995 1119
94.9105  1132
94.93104 1056
94.95159 1009
94.97214 1077
94.99269 1188
95.01323 1053
95.03378 1089
95.05433 1158
95.07488 1136
95.09542 1084
95.11597 1106
95.13652 1124
95.15707 1158
95.17762 1092
95.19816 1177
95.21871 1135
95.23926 1174
95.25981 1116
95.28035 1091
95.30091 1125
95.32145 1100
95.34200 1105
95.36254 1149
95.38310 1133
95.40364 1118
95.42419 1105
95.44474 1145
95.46528 1093
95.48584 1130
95.50638 1130
95.52693 1114
95.54747 1117
95.56803 1125
95.58857 1129
95.60912 1104
95.62966 1104
95.65022 1128
95.67076 1083
95.69131 1091
95.71186 1057
95.73241 1081
95.75296 1100
95.77350 1133
95.79405 1171
95.81460 1080
95.83515 1234
95.85569 1158
95.87624 1086
95.89679 1092
95.91734 1086
95.93788 1149
95.95843 1141
95.97898 1064
95.99953 1095
96.02008 1080
96.04062 1141
96.06117 1162
96.08172 1168
96.10227 1143
96.12281 1096
96.14336 1075
96.16391 1086
96.18446 1103
96.20500 1130
96.22555 1093
96.24610 1110
96.26665 1139
96.28720 1072
96.30774 1123
96.3283  1058
96.34884 1095
96.36939 1124
96.38993 1135
96.41049 1121
96.43103 1161
96.45158 1094
96.47213 1133
96.49268 1053
96.51322 1066
96.53377 1133
96.55432 1097
96.57487 1180
96.59542 1107
96.61596 1120
96.63651 1156
96.65705 1134
96.67761 1174
96.69815 1089
96.71870 1119
96.73925 1126
96.75980 1215
96.78035 1113
96.80089 1165
96.82144 1136
96.84199 1140
96.86254 1198
96.88308 1101
96.90363 1149
96.92418 1100
96.94473 1179
96.96527 1106
96.98582 1130
97.00637 1174
97.02692 1120
97.04747 1101
97.06801 1119
97.08857 1100
97.10911 1146
97.12966 1125
97.15020 1054
97.17076 1097
97.19130 1146
97.21185 1132
97.23239 1082
97.25294 1133
97.27349 1127
97.29404 1100
97.31459 1099
97.33513 1123
97.35569 1145
97.37623 1119
97.39678 1150
97.41732 1089
97.43788 1172
97.45842 1147
97.47897 1167
97.49951 1175
97.52007 1104
97.54061 1167
97.56116 1090
97.58171 1128
97.60226 1055
97.62281 1159
97.64335 1089
97.66390 1084
97.68445 1122
97.70500 1171
97.72554 1108
97.74609 1114
97.76664 1090
97.78719 1124
97.80773 1190
97.82828 1134
97.84883 1144
97.86938 1137
97.88993 1112
97.91047 1113
97.93102 1178
97.95157 1068
97.97212 1063
97.99266 1147
98.01321 1100
98.03376 1118
98.05431 1107
98.07486 1121
98.09540 1175
98.11595 1148
98.13650 1115
98.15705 1167
98.17759 1115
98.19815 1131
98.21869 1148
98.23924 1128
98.25978 1106
98.28034 1096
98.30088 1132
98.32143 1123
98.34198 1102
98.36253 1150
98.38308 1170
98.40362 1117
98.42417 1120
98.44471 1118
98.46527 1175
98.48581 1194
98.50636 1115
98.52690 1190
98.54746 1175
98.56800 1152
98.58855 1133
98.6091  1184
98.62965 1188
98.6502  1174
98.67074 1175
98.69129 1167
98.71184 1204
98.73239 1220
98.75293 1239
98.77348 1228
98.79403 1234
98.81458 1197
98.83512 1163
98.85567 1289
98.87622 1237
98.89677 1154
98.91732 1262
98.93786 1249
98.95842 1242
98.97896 1226
98.99951 1259
99.02005 1225
99.04060 1262
99.06115 1210
99.08170 1265
99.10224 1265
99.12279 1272
99.14334 1189
99.16389 1242
99.18444 1253
99.20498 1233
99.22554 1238
99.24608 1153
99.26663 1236
99.28717 1239
99.30773 1167
99.32827 1161
99.34882 1139
99.36937 1229
99.38992 1250
99.41046 1197
99.43101 1170
99.45156 1194
99.47211 1171
99.49266 1088
99.51320 1159
99.53375 1069
99.55429 1164
99.57485 1170
99.59539 1187
99.61594 1190
99.63649 1166
99.65704 1126
99.67758 1133
99.69813 1179
99.71868 1180
99.73923 1156
99.75978 1122
99.78032 1120
99.80087 1128
99.82142 1074
99.84197 1099
99.86251 1168
99.88306 1156
99.90361 1110
99.92416 1055
99.94471 1179
99.96525 1140
99.98580 1113
100.0063 1132
100.0269 1183
100.0474 1123
100.0680 1125
100.0885 1121
100.1090 1094
100.1296 1176
100.1501 1135
100.1707 1106
100.1912 1124
100.2118 1147
100.2323 1090
100.2529 1151
100.2734 1158
100.2940 1178
100.3145 1132
100.3351 1104
100.3556 1141
100.3762 1127
100.3967 1143
100.4173 1136
100.4378 1127
100.4584 1064
100.4789 1130
100.4995 1162
100.5200 1120
100.5405 1184
100.5611 1135
100.5816 1164
100.6022 1092
100.6227 1144
100.6433 1156
100.6638 1138
100.6844 1098
100.7049 1180
100.7255 1181
100.7460 1131
100.7666 1130
100.7871 1164
100.8077 1118
100.8282 1133
100.8488 1092
100.8693 1085
100.8899 1108
100.9104 1142
100.9310 1144
100.9515 1133
100.9720 1136
100.9926 1129
101.0131 1149
101.0337 1139
101.0542 1154
101.0748 1104
101.0953 1104
101.1159 1110
101.1364 1092
101.1570 1108
101.1775 1116
101.1981 1093
101.2186 1117
101.2392 1136
101.2597 1199
101.2803 1099
101.3008 1145
101.3214 1183
101.3419 1151
101.3625 1111
101.3830 1122
101.4036 1129
101.4241 1106
101.4447 1154
101.4652 1053
101.4857 1110
101.5063 1115
101.5268 1087
101.5474 1144
101.5679 1111
101.5885 1126
101.6090 1117
101.6296 1117
101.6501 1110
101.6707 1177
101.6912 1052
101.7118 1131
101.7323 1105
101.7529 1158
101.7734 1124
101.7940 1114
101.8145 1104
101.8351 1107
101.8556 1058
101.8762 1116
101.8967 1158
101.9172 1172
101.9378 1159
101.9583 1162
101.9789 1026
101.9994 1126
102.0200 1142
102.0405 1097
102.0611 1180
102.0816 1069
102.1022 1082
102.1227 1118
102.1433 1138
102.1638 1141
102.1844 1170
102.2049 1152
102.2255 1140
102.2460 1042
102.2666 1138
102.2871 1134
102.3077 1132
102.3282 1145
102.3488 1120
102.3693 1154
102.3899 1144
102.4104 1124
102.4309 1115
102.4515 1123
102.4720 1131
102.4926 1097
102.5131 1103
102.5337 1092
102.5542 1118
102.5748 1106
102.5953 1120
102.6159 1137
102.6364 1057
102.6570 1156
102.6775 1114
102.6981 1140
102.7186 1131
102.7392 1106
102.7597 1147
102.7803 1081
102.8008 1108
102.8214 1118
102.8419 1102
102.8624 1094
102.8830 1117
102.9035 1054
102.9241 1125
102.9446 1096
102.9652 1129
102.9857 1138
103.0063 1101
103.0268 1188
103.0474 1205
103.0679 1053
103.0885 1143
103.1090 1065
103.1296 1104
103.1501 1130
103.1707 1080
103.1912 1162
103.2118 1122
103.2323 1096
103.2529 1131
103.2734 1093
103.2939 1100
103.3145 1103
103.3350 1198
103.3556 1129
103.3761 1169
103.3967 1140
103.4172 1158
103.4378 1130
103.4583 1117
103.4789 1085
103.4994 1132
103.5200 1124
103.5405 1135
103.5611 1138
103.5816 1095
103.6022 1153
103.6227 1134
103.6433 1117
103.6638 1060
103.6844 1128
103.7049 1095
103.7255 1107
103.7460 1112
103.7666 1092
103.7871 1131
103.8076 1074
103.8282 1058
103.8487 1106
103.8693 1068
103.8898 1072
103.9104 1123
103.9309 1153
103.9515 1150
103.9720 1192
103.9926 1145
104.0131 1143
104.0337 1118
104.0542 1147
104.0748 1167
104.0953 1119
104.1159 1111
104.1364 1138
104.1570 1111
104.1775 1155
104.1981 1094
104.2186 1079
104.2391 1083
104.2597 1110
104.2802 1053
104.3008 1088
104.3213 1145
104.3419 1175
104.3624 1138
104.3830 1115
104.4035 1101
104.4241 1066
104.4446 1130
104.4652 1169
104.4857 1091
104.5063 1157
104.5268 1114
104.5474 1161
104.5679 1141
104.5885 1147
104.6090 1119
104.6296 1132
104.6501 1101
104.6707 1155
104.6912 1025
104.7118 1122
104.7323 1192
104.7528 1154
104.7734 1070
104.7939 1072
104.8145 1119
104.8350 1119
104.8556 1136
104.8761 1177
104.8967 1111
104.9172 1105
104.9378 1118
104.9583 1060
104.9789 1099
104.9994 1114
105.0200 1100
105.0405 1141
105.0611 1089
105.0816 1126
105.1022 1123
105.1227 1160
105.1433 1181
105.1638 1093
105.1844 1086
105.2049 1125
105.2254 1205
105.2460 1112
105.2665 1147
105.2871 1046
105.3076 1150
105.3282 1121
105.3487 1111
105.3693 1127
105.3898 1127
105.4104 1186
105.4309 1133
105.4515 1086
105.4720 1082
105.4926 1127
105.5131 1108
105.5337 1114
105.5542 1178
105.5748 1149
105.5953 1141
105.6159 1064
105.6364 1158
105.6569 1119
105.6775 1116
105.6980 1122
105.7186 1158
105.7391 1126
105.7597 1089
105.7802 1139
105.8008 1129
105.8213 1048
105.8419 1125
105.8624 1120
105.8830 1175
105.9035 1103
105.9241 1138
105.9446 1118
105.9652 1134
105.9857 1148
106.0063 1134
106.0268 1125
106.0474 1144
106.0679 1106
106.0885 1141
106.1090 1098
106.1296 1100
106.1501 1159
106.1706 1091
106.1912 1173
106.2117 1153
106.2323 1175
106.2528 1113
106.2734 1120
106.2939 1105
106.3145 1139
106.3350 1074
106.3556 1148
106.3761 1134
106.3967 1176
106.4172 1174
106.4378 1121
106.4583 1118
106.4789 1100
106.4994 1111
106.5200 1131
106.5405 1189
106.5611 1102
106.5816 1179
106.6021 1072
106.6227 1129
106.6432 1118
106.6638 1093
106.6843 1157
106.7049 1118
106.7254 1125
106.7460 1105
106.7665 1075
106.7871 1173
106.8076 1138
106.8282 1088
106.8487 1098
106.8693 1161
106.8898 1185
106.9104 1072
106.9309 1129
106.9515 1121
106.9720 1122
106.9926 1133
107.0131 1018
107.0336 1198
107.0542 1131
107.0747 1134
107.0953 1115
107.1158 1164
107.1364 1156
107.1569 1107
107.1775 1103
107.1980 1185
107.2186 1088
107.2391 1108
107.2597 1121
107.2802 1096
107.3008 1130
107.3213 1123
107.3419 1085
107.3624 1143
107.3830 1113
107.4035 1146
107.4241 1153
107.4446 1104
107.4652 1072
107.4857 1116
107.5063 1175
107.5268 1155
107.5473 1120
107.5679 1066
107.5884 1098
107.6090 1142
107.6295 1076
107.6501 1115
107.6706 1125
107.6912 1124
107.7117 1086
107.7323 1137
107.7528 1112
107.7734 1158
107.7939 1142
107.8145 1161
107.8350 1079
107.8556 1154
107.8761 1156
107.8967 1094
107.9172 1143
107.9378 1130
107.9583 1186
107.9788 1051
107.9994 1103
108.0199 1089
108.0405 1113
108.0610 1091
108.0816 1127
108.1021 1114
108.1227 1116
108.1432 1093
108.1638 1149
108.1843 1141
108.2049 1073
108.2254 1133
108.2460 1148
108.2665 1111
108.2871 1170
108.3076 1139
108.3282 1141
108.3487 1105
108.3693 1122
108.3898 1106
108.4104 1137
108.4309 1060
108.4515 1100
108.4720 1136
108.4925 1087
108.5131 1101
108.5336 1098
108.5542 1143
108.5747 1136
108.5953 1120
108.6158 1074
108.6364 1082
108.6569 1139
108.6775 1140
108.6980 1063
108.7186 1161
108.7391 1110
108.7597 1133
108.7802 1046
108.8008 1168
108.8213 1094
108.8419 1067
108.8624 1090
108.8830 1118
108.9035 1133
108.9240 1188
108.9446 1099
108.9651 1079
108.9857 1099
109.0062 1089
109.0268 1143
109.0473 1089
109.0679 1065
109.0884 1054
109.1090 1105
109.1295 1094
109.1501 1109
109.1706 1073
109.1912 1093
109.2117 1125
109.2323 1134
109.2528 1115
109.2734 1106
109.2939 1077
109.3145 1129
109.3350 1156
109.3556 1112
109.3761 1114
109.3966 1150
109.4172 1176
109.4377 1163
109.4583 1186
109.4788 1111
109.4994 1104
109.5199 1075
109.5405 1076
109.5610 1114
109.5816 1111
109.6021 1174
109.6227 1077
109.6432 1132
109.6638 1092
109.6843 1126
109.7049 1091
109.7254 1097
109.7460 1070
109.7665 1114
109.7871 1075
109.8076 1065
109.8282 1062
109.8487 1094
109.8693 1066
109.8898 1095
109.9103 1069
109.9309 1183
109.9514 1079
109.9720 1077
109.9925 1123
110.0131 1172
110.0336 1101
110.0542 1145
110.0747 1122
110.0953 1138
110.1158 1179
110.1364 1144
110.1569 1128
110.1775 1045
110.1980 1111
110.2186 1134
110.2391 1146
110.2597 1056
110.2802 1111
110.3008 1094
110.3213 1118
110.3418 1085
110.3624 1053
110.3829 1073
110.4035 1100
110.4240 1120
110.4446 1089
110.4651 1136
110.4857 1064
110.5062 1076
110.5268 1091
110.5473 1035
110.5679 1140
110.5884 1066
110.6090 1069
110.6295 1049
110.6501 1110
110.6706 1029
110.6912 1082
110.7117 1115
110.7323 1081
110.7528 1059
110.7733 1037
110.7939 1017
110.8144 1046
110.8350 1109
110.8555 995
110.8761 1068
110.8966 1046
110.9172 1021
110.9377 1005
110.9583 1092
110.9788 1072
110.9994 1050
111.0199 1100
111.0405 1003
111.0610 1065
111.0816 1118
111.1021 961
111.1227 1043
111.1432 1017
111.1638 1009
111.1843 1026
111.2049 1060
111.2254 1030
111.2460 1059
111.2665 1040
111.2870 1035
111.3076 1081
111.3281 1070
111.3487 1013
111.3692 1010
111.3898 1014
111.4103 1012
111.4309 1072
111.4514 933
111.4720 1023
111.4925 999
111.5131 975
111.5336 1006
111.5542 1001
111.5747 1013
111.5953 974
111.6158 1025
111.6364 1004
111.6569 1035
111.6775 980
111.6980 942
111.7185 950
111.7391 1024
111.7596 1018
111.7802 984
111.8007 983
111.8213 978
111.8418 1013
111.8624 1042
111.8829 1007
111.9035 991
111.9240 984
111.9446 953
111.9651 1020
111.9857 968
112.0062 1034
112.0268 971
112.0473 984
112.0679 999
112.0884 977
112.1090 971
112.1295 969
112.1501 973
112.1706 1023
112.1912 992
112.2117 963
112.2322 957
112.2528 937
112.2733 953
112.2939 935
112.3144 1027
112.3350 950
112.3555 968
112.3761 977
112.3966 963
112.4172 946
112.4377 942
112.4583 928
112.4788 965
112.4994 1010
112.5199 1006
112.5405 976
112.5610 961
112.5816 871
112.6021 931
112.6227 993
112.6432 933
112.6637 952
112.6843 911
112.7048 892
112.7254 867
112.7459 892
112.7665 869
112.7870 876
112.8076 852
112.8281 873
112.8487 824
112.8692 801
112.8898 847
112.9103 907
112.9309 820
112.9514 783
112.9720 857
112.9925 768
113.0131 840
113.0336 801
113.0542 827
113.0747 839
113.0952 772
113.1158 782
113.1363 708
113.1569 715
113.1774 719
113.1980 759
113.2185 707
113.2391 812
113.2596 708
113.2802 759
113.3007 717
113.3213 691
113.3418 726
113.3624 687
113.3829 687
113.4035 706
113.4240 739
113.4446 708
113.4651 666
113.4857 651
113.5062 730
113.5268 633
113.5473 644
113.5679 630
113.5884 695
113.6089 623
113.6295 634
113.6500 681
113.6706 654
113.6911 650
113.7117 614
113.7322 636
113.7528 605
113.7733 592
113.7939 602
113.8144 594
113.8350 491
113.8555 582
113.8761 576
113.8966 550
113.9172 570
113.9377 559
113.9583 568
113.9788 528
113.9994 563
114.0199 532
114.0405 519
114.0610 536
114.0815 523
114.1021 501
114.1226 487
114.1432 495
114.1637 477
114.1843 504
114.2048 503
114.2254 490
114.2459 447
114.2665 451
114.2870 433
114.3076 411
114.3281 458
114.3487 425
114.3692 408
114.3898 444
114.4103 425
114.4309 396
114.4514 405
114.4720 443
114.4925 378
114.5131 403
114.5336 404
114.5541 384
114.5747 339
114.5952 383
114.6158 371
114.6363 357
114.6569 328
114.6774 340
114.6980 309
114.7185 325
114.7391 314
114.7596 302
114.7802 284
114.8007 317
114.8213 301
114.8418 337
114.8624 294
114.8829 294
114.9035 269
114.9240 243
114.9446 263
114.9651 229
114.9857 241
115.0062 218
115.0267 237
115.0473 253
115.0678 194
115.0884 236
115.1089 217
115.1295 204
115.1500 206
115.1706 192
115.1911 180
115.2117 168
115.2322 176
115.2528 142
115.2733 166
115.2939 167
115.3144 159
115.3350 138
115.3555 131
115.3761 125
115.3966 128
115.4172 140
115.4377 126
115.4582 119
115.4788 116
115.4993 91
115.5199 105
115.5404 80
115.5610 71
115.5815 79
115.6021 61
115.6226 57
115.6432 57
115.6637 52
115.6843 50
115.7048 56
115.7254 41
115.7459 46
115.7665 52
115.7870 44
115.8076 44
115.8281 40
115.8487 41
115.8692 49
115.8898 43
115.9103 41
115.9309 46
115.9514 39
115.9719 43
115.9925 35
116.0130 40
116.0336 40
116.0541 44
116.0747 42
116.0952 53
116.1158 55
116.1363 50
116.1569 47
116.1774 39
116.1980 40
116.2185 38
116.2391 39
116.2596 39
116.2802 50
116.3007 41
116.3213 40
116.3418 38
116.3624 49
116.3829 39
116.4034 48
116.4240 49
116.4445 42
116.4651 43
116.4856 31
116.5062 30
116.5267 42
116.5473 39
116.5678 44
116.5884 27
116.6089 24
116.6295 37
116.6500 38
116.6706 36
116.6911 33
116.7117 50
116.7322 39
116.7528 28
116.7733 38
116.7939 32
116.8144 31
116.8349 30
116.8555 29
116.8760 39
116.8966 38
116.9171 37
116.9377 25
116.9582 34
116.9788 28
116.9993 29
117.0199 29
117.0404 27
117.0610 19
117.0815 23
117.1021 28
117.1226 29
117.1432 30
117.1637 33
117.1843 21
117.2048 36
117.2254 28
117.2459 30
117.2665 28
117.2870 24
117.3076 25
117.3281 25
117.3486 29
117.3692 37
117.3897 16
117.4103 38
117.4308 27
117.4514 14
117.4719 24
117.4925 26
117.5130 31
117.5336 33
117.5541 19
117.5747 34
117.5952 26
117.6158 28
117.6363 27
117.6569 26
117.6774 31
117.6980 28
117.7185 32
117.7391 36
117.7596 44
117.7801 33
117.8007 30
117.8212 29
117.8418 36
117.8623 25
117.8829 23
117.9034 23
117.9240 44
117.9445 34
117.9651 37
117.9856 21
118.0062 35
118.0267 21
118.0473 24
118.0678 30
118.0884 29
118.1089 23
118.1295 37
118.1500 32
118.1706 22
118.1911 33
118.2117 32
118.2322 44
118.2528 32
118.2733 27
118.2938 40
118.3144 26
118.3349 27
118.3555 35
118.3760 41
118.3966 26
118.4171 36
118.4377 24
118.4582 22
118.4788 34
118.4993 30
118.5199 35
118.5404 38
118.5610 22
118.5815 37
118.6021 33
118.6226 37
118.6432 33
118.6637 41
118.6843 29
118.7048 26
118.7254 35
118.7459 33
118.7664 32
118.7870 32
118.8075 38
118.8281 31
118.8486 26
118.8692 39
118.8897 40
118.9103 44
118.9308 37
118.9514 30
118.9719 44
118.9925 47
119.0130 36
119.0336 48
119.0541 37
119.0747 39
119.0952 41
119.1158 39
119.1363 41
119.1569 32
119.1774 44
119.1979 31
119.2185 31
119.2390 32
119.2596 36
119.2801 36
119.3007 56
119.3212 43
119.3418 48
119.3623 30
119.3829 44
119.4034 42
119.4240 31
119.4445 33
119.4651 41
119.4856 35
119.5062 45
119.5267 30
119.5473 33
119.5678 50
119.5884 41
119.6089 47
119.6295 41
119.6500 32
119.6706 41
119.6911 51
119.7116 56
119.7322 44
119.7527 39
119.7733 59
119.7938 50
119.8144 43
119.8349 46
119.8555 34
119.8760 43
119.8966 48
119.9171 46
119.9377 42
119.9582 46
119.9788 60
119.9993 62
