?
30.0     938
30.02054 903
30.04109 908
30.06164 894
30.08219 924
30.10273 951
30.12328 912
30.14383 963
30.16438 990
30.18493 919
30.20547 926
30.22602 903
30.24657 894
30.26712 923
30.28767 867
30.30821 867
30.32876 923
30.34931 895
30.36986 870
30.39040 897
30.41095 896
30.43150 904
30.45205 884
30.47259 960
30.49314 905
30.51369 917
30.53424 947
30.55479 927
30.57533 950
30.59588 912
30.61643 944
30.63698 942
30.65753 922
30.67807 953
30.69862 879
30.71917 885
30.73972 911
30.76026 996
30.78081 899
30.80136 956
30.82191 909
30.84246 871
30.86300 943
30.88355 844
30.90410 881
30.92465 918
30.94519 934
30.96574 907
30.98629 956
31.00684 944
31.02739 899
31.04793 930
31.06848 859
31.08903 896
31.10958 897
31.13012 938
31.15067 927
31.17122 860
31.19177 900
31.21232 923
31.23286 945
31.25341 901
31.27396 892
31.29451 882
31.31506 901
31.33560 937
31.35615 921
31.37670 986
31.39725 890
31.41779 903
31.43834 865
31.45889 887
31.47944 854
31.49998 891
31.52053 910
31.54108 924
31.56163 943
31.58218 946
31.60272 942
31.62327 942
31.64382 868
31.66437 958
31.68491 922
31.70546 926
31.72601 900
31.74656 916
31.76711 943
31.78765 922
31.80820 938
31.82875 867
31.84930 929
31.86985 919
31.89039 921
31.91094 939
31.93149 924
31.95204 873
31.97258 933
31.99313 945
32.01368 933
32.03423 914
32.05477 926
32.07532 931
32.09587 969
32.11642 966
32.13697 874
32.15752 844
32.17806 900
32.19861 970
32.21916 889
32.23971 895
32.26025 859
32.28080 904
32.30135 863
32.32190 923
32.34244 856
32.36299 913
32.38354 940
32.40409 907
32.42464 930
32.44518 950
32.46573 873
32.48628 942
32.50683 913
32.52737 941
32.54792 893
32.56847 916
32.58902 929
32.60957 961
32.63011 929
32.65066 887
32.67121 861
32.69176 874
32.71231 927
32.73285 948
32.75340 941
32.77395 944
32.79450 901
32.81504 939
32.83559 936
32.85614 956
32.87669 912
32.89724 886
32.91778 920
32.93833 953
32.95888 927
32.97943 955
32.99997 867
33.02052 889
33.04107 953
33.06162 938
33.08216 880
33.10271 859
33.12326 907
33.14381 921
33.16436 935
33.18491 932
33.20545 944
33.22600 875
33.24655 952
33.26710 964
33.28764 941
33.30819 896
33.32874 919
33.34929 949
33.36983 950
33.39038 923
33.41093 947
33.43148 886
33.45203 914
33.47258 1032
33.49312 917
33.51367 965
33.53422 938
33.55476 883
33.57531 904
33.59586 912
33.61641 933
33.63695 988
33.65750 909
33.67805 926
33.69860 984
33.71915 888
33.7397  935
33.76024 930
33.78079 908
33.80134 923
33.82189 882
33.84243 973
33.86298 881
33.88353 915
33.90408 935
33.92462 946
33.94517 919
33.96572 867
33.98627 934
34.00682 935
34.02737 928
34.04791 935
34.06846 911
34.08901 940
34.10955 948
34.13010 912
34.15065 939
34.17120 915
34.19175 942
34.21229 908
34.23284 899
34.25339 933
34.27394 973
34.29449 908
34.31503 893
34.33558 951
34.35613 929
34.37668 926
34.39722 950
34.41777 984
34.43832 920
34.45887 930
34.47942 942
34.49996 980
34.52051 904
34.54106 908
34.56161 911
34.58216 901
34.60270 870
34.62325 930
34.64380 932
34.66435 879
34.68489 942
34.70544 895
34.72599 943
34.74654 847
34.76709 866
34.78763 898
34.80818 868
34.82873 922
34.84928 903
34.86982 934
34.89037 914
34.91092 920
34.93147 876
34.95201 907
34.97256 888
34.99311 939
35.01366 939
35.03421 913
35.05476 921
35.07530 967
35.09585 864
35.11640 886
35.13695 966
35.15749 918
35.17804 913
35.19859 975
35.21914 910
35.23968 918
35.26023 882
35.28078 927
35.30133 955
35.32188 904
35.34242 864
35.36297 916
35.38352 1003
35.40407 940
35.42461 920
35.44516 915
35.46571 853
35.48626 922
35.50680 905
35.52735 927
35.54790 912
35.56845 897
35.58900 877
35.60955 940
35.63009 938
35.65064 908
35.67119 892
35.69174 905
35.71228 986
35.73283 941
35.75338 873
35.77393 889
35.79447 1007
35.81502 890
35.83557 943
35.85612 962
35.87667 893
35.89721 889
35.91776 945
35.93831 888
35.95886 934
35.97940 939
35.99995 899
36.02050 910
36.04105 929
36.0616  938
36.08215 892
36.10269 961
36.12324 980
36.14379 968
36.16434 924
36.18488 944
36.20543 914
36.22598 901
36.24653 941
36.26707 931
36.28762 919
36.30817 873
36.32872 908
36.34927 919
36.36982 958
36.39036 959
36.41091 967
36.43146 982
36.45200 902
36.47255 918
36.49310 895
36.51365 916
36.53419 959
36.55474 838
36.57529 954
36.59584 924
36.61639 857
36.63694 982
36.65748 885
36.67803 894
36.69858 889
36.71913 903
36.73967 904
36.76022 986
36.78077 965
36.80132 945
36.82186 926
36.84241 914
36.86296 976
36.88351 911
36.90406 942
36.92461 912
36.94515 986
36.96570 910
36.98625 901
37.00680 891
37.02734 941
37.04789 929
37.06844 923
37.08898 864
37.10953 920
37.13008 881
37.15063 960
37.17118 918
37.19173 966
37.21227 946
37.23282 955
37.25337 926
37.27392 900
37.29446 939
37.31501 932
37.33556 908
37.35611 927
37.37665 940
37.39720 926
37.41775 954
37.43830 945
37.45885 920
37.47940 891
37.49994 955
37.52049 958
37.54104 942
37.56159 967
37.58213 897
37.60268 917
37.62323 903
37.64378 870
37.66433 918
37.68487 977
37.70542 896
37.72597 910
37.74652 854
37.76706 931
37.78761 929
37.80816 942
37.82871 905
37.84925 916
37.86980 909
37.89035 917
37.91090 923
37.93145 901
37.952   876
37.97254 940
37.99309 924
38.01364 895
38.03419 953
38.05473 866
38.07528 883
38.09583 930
38.11638 883
38.13692 919
38.15747 942
38.17802 969
38.19857 969
38.21912 943
38.23966 902
38.26021 875
38.28076 919
38.30131 979
38.32185 896
38.34240 902
38.36295 967
38.38350 969
38.40404 939
38.42459 914
38.44514 998
38.46569 928
38.48624 881
38.50679 927
38.52733 960
38.54788 908
38.56843 917
38.58898 910
38.60952 951
38.63007 914
38.65062 958
38.67117 909
38.69171 984
38.71226 946
38.73281 908
38.75336 912
38.77391 933
38.79445 902
38.81500 957
38.83555 949
38.85610 907
38.87664 885
38.89719 950
38.91774 869
38.93829 921
38.95883 889
38.97938 907
38.99993 900
39.02048 960
39.04103 915
39.06158 912
39.08212 918
39.10267 962
39.12322 938
39.14377 933
39.16431 955
39.18486 943
39.20541 966
39.22596 927
39.24651 888
39.26705 902
39.28760 897
39.30815 917
39.32870 909
39.34925 874
39.36979 903
39.39034 966
39.41089 895
39.43143 891
39.45198 950
39.47253 966
39.49308 929
39.51363 978
39.53418 968
39.55472 929
39.57527 868
39.59582 904
39.61637 978
39.63691 949
39.65746 928
39.67801 952
39.69856 971
39.71910 932
39.73965 931
39.76020 933
39.78075 937
39.8013  905
39.82185 939
39.84239 911
39.86294 957
39.88349 914
39.90404 949
39.92458 934
39.94513 899
39.96568 885
39.98622 889
40.00677 965
40.02732 966
40.04787 992
40.06842 914
40.08897 947
40.10951 849
40.13006 918
40.15061 945
40.17116 942
40.19170 965
40.21225 935
40.23280 912
40.25335 950
40.27389 960
40.29444 958
40.31499 911
40.33554 854
40.35609 930
40.37664 950
40.39718 948
40.41773 918
40.43828 902
40.45883 931
40.47937 949
40.49992 914
40.52047 950
40.54101 935
40.56156 999
40.58211 918
40.60266 983
40.62321 992
40.64376 978
40.66430 919
40.68485 896
40.70540 950
40.72595 915
40.74649 948
40.76704 974
40.78759 895
40.80814 909
40.82869 880
40.84923 940
40.86978 917
40.89033 925
40.91088 931
40.93143 965
40.95197 940
40.97252 909
40.99307 935
41.01362 936
41.03416 920
41.05471 964
41.07526 925
41.09581 912
41.11636 904
41.13690 903
41.15745 902
41.17800 929
41.19855 916
41.21909 912
41.23964 925
41.26019 982
41.28074 913
41.30128 885
41.32183 929
41.34238 1007
41.36293 902
41.38348 915
41.40403 929
41.42457 970
41.44512 927
41.46567 895
41.48622 974
41.50676 932
41.52731 944
41.54786 891
41.56841 902
41.58895 950
41.60950 936
41.63005 923
41.65060 989
41.67115 895
41.69169 935
41.71224 854
41.73279 914
41.75334 938
41.77388 891
41.79443 992
41.81498 909
41.83553 944
41.85607 985
41.87662 899
41.89717 915
41.91772 919
41.93827 936
41.95882 919
41.97936 942
41.99991 906
42.02046 925
42.04101 900
42.06155 913
42.08210 942
42.10265 950
42.12320 903
42.14374 922
42.16429 947
42.18484 948
42.20539 979
42.22594 948
42.24649 892
42.26703 933
42.28758 931
42.30813 962
42.32867 949
42.34922 934
42.36977 941
42.39032 997
42.41087 935
42.43141 916
42.45196 939
42.47251 947
42.49306 961
42.51361 890
42.53415 963
42.55470 892
42.57525 955
42.59580 916
42.61634 945
42.63689 900
42.65744 947
42.67799 926
42.69854 955
42.71909 958
42.73963 952
42.76018 971
42.78073 982
42.80128 904
42.82182 1005
42.84237 941
42.86292 899
42.88346 983
42.90401 976
42.92456 1001
42.94511 975
42.96566 914
42.98621 929
43.00675 946
43.02730 956
43.04785 955
43.06840 890
43.08894 996
43.10949 910
43.13004 954
43.15059 929
43.17113 928
43.19168 1031
43.21223 1005
43.23278 953
43.25333 963
43.27388 920
43.29442 950
43.31497 950
43.33552 916
43.35607 961
43.37661 972
43.39716 994
43.41771 991
43.43826 974
43.45880 979
43.47935 1021
43.49990 961
43.52045 961
43.541   977
43.56154 1009
43.58209 995
43.60264 958
43.62319 947
43.64373 967
43.66428 999
43.68483 925
43.70538 925
43.72592 940
43.74647 916
43.76702 992
43.78757 1006
43.80812 991
43.82867 1011
43.84921 940
43.86976 986
43.89031 926
43.91086 1012
43.93140 979
43.95195 1033
43.97250 1010
43.99305 965
44.01359 960
44.03414 971
44.05469 1027
44.07524 989
44.09579 1041
44.11633 1032
44.13688 1044
44.15743 1074
44.17798 1023
44.19852 1004
44.21907 1077
44.23962 1052
44.26017 1123
44.28072 1083
44.30127 1039
44.32181 1048
44.34236 1178
44.36291 1114
44.38346 1087
44.40400 1180
44.42455 1178
44.44510 1245
44.46565 1230
44.48619 1298
44.50674 1382
44.52729 1403
44.54784 1502
44.56839 1593
44.58894 1690
44.60948 1839
44.63003 2076
44.65058 2420
44.67112 2838
44.69167 3324
44.71222 3940
44.73277 4583
44.75331 4745
44.77386 4627
44.79441 4046
44.81496 3584
44.83551 3373
44.85606 3346
44.87660 3146
44.89715 2881
44.91770 2195
44.93825 1901
44.95879 1661
44.97934 1411
44.99989 1368
45.02044 1255
45.04098 1141
45.06153 1152
45.08208 1114
45.10263 1123
45.12318 1093
45.14373 986
45.16427 1017
45.18482 1027
45.20537 1060
45.22591 1032
45.24646 964
45.26701 983
45.28756 1046
45.30810 1005
45.32865 1000
45.34920 959
45.36975 972
45.39030 928
45.41085 959
45.43139 965
45.45194 970
45.47249 935
45.49304 937
45.51358 946
45.53413 933
45.55468 973
45.57523 996
45.59577 941
45.61632 961
45.63687 944
45.65742 880
45.67797 889
45.69852 948
45.71906 938
45.73961 969
45.76016 949
45.78070 942
45.80125 917
45.82180 877
45.84235 937
45.8629  942
45.88345 964
45.90399 967
45.92454 973
45.94509 945
45.96564 965
45.98618 935
46.00673 985
46.02728 952
46.04783 933
46.06837 945
46.08892 996
46.10947 969
46.13002 960
46.15057 953
46.17112 923
46.19166 917
46.21221 956
46.23276 969
46.25331 926
46.27385 903
46.29440 984
46.31495 925
46.33550 936
46.35604 916
46.37659 922
46.39714 906
46.41769 955
46.43824 966
46.45878 979
46.47933 992
46.49988 890
46.52043 916
46.54097 1003
46.56152 955
46.58207 963
46.60262 927
46.62316 927
46.64371 960
46.66426 930
46.68481 946
46.70536 986
46.72591 945
46.74645 903
46.76700 923
46.78755 942
46.80810 949
46.82864 1040
46.84919 907
46.86974 950
46.89029 888
46.91083 941
46.93138 973
46.95193 934
46.97248 966
46.99303 979
47.01357 959
47.03412 940
47.05467 963
47.07522 946
47.09576 925
47.11631 939
47.13686 949
47.15741 934
47.17795 977
47.19850 949
47.21905 957
47.23960 956
47.26015 955
47.28070 918
47.30124 904
47.32179 939
47.34234 889
47.36289 947
47.38343 886
47.40398 917
47.42453 938
47.44508 947
47.46563 909
47.48617 991
47.50672 946
47.52727 997
47.54782 947
47.56836 945
47.58891 903
47.60946 931
47.63001 914
47.65055 942
47.67110 919
47.69165 947
47.71220 908
47.73275 889
47.7533  952
47.77384 985
47.79439 949
47.81494 925
47.83549 941
47.85603 927
47.87658 879
47.89713 917
47.91768 888
47.93822 925
47.95877 923
47.97932 966
47.99987 1013
48.02042 956
48.04097 916
48.06151 944
48.08206 931
48.10261 930
48.12315 884
48.14370 926
48.16425 936
48.18480 955
48.20534 950
48.22589 979
48.24644 957
48.26699 950
48.28754 953
48.30809 978
48.32863 920
48.34918 958
48.36973 961
48.39028 875
48.41082 909
48.43137 926
48.45192 952
48.47247 926
48.49301 966
48.51356 946
48.53411 964
48.55466 948
48.57521 932
48.59576 901
48.61630 906
48.63685 1011
48.65740 931
48.67795 909
48.69849 963
48.71904 890
48.73959 877
48.76013 981
48.78068 939
48.80123 905
48.82178 935
48.84233 956
48.86288 912
48.88342 909
48.90397 924
48.92452 955
48.94507 947
48.96561 902
48.98616 883
49.00671 925
49.02726 949
49.04781 944
49.06835 943
49.08890 912
49.10945 969
49.13000 918
49.15055 940
49.17109 947
49.19164 922
49.21219 970
49.23274 907
49.25328 918
49.27383 980
49.29438 948
49.31493 973
49.33548 966
49.35602 940
49.37657 868
49.39712 907
49.41767 937
49.43821 936
49.45876 924
49.47931 929
49.49986 864
49.52040 913
49.54095 944
49.56150 890
49.58205 937
49.6026  913
49.62315 939
49.64369 958
49.66424 993
49.68479 940
49.70534 863
49.72588 941
49.74643 953
49.76698 993
49.78753 862
49.80807 936
49.82862 966
49.84917 948
49.86972 924
49.89027 909
49.91081 906
49.93136 1025
49.95191 918
49.97246 985
49.99300 946
50.01355 1023
50.03410 864
50.05465 940
50.07519 967
50.09574 939
50.11629 962
50.13684 919
50.15739 887
50.17794 951
50.19848 976
50.21903 944
50.23958 965
50.26013 920
50.28067 932
50.30122 941
50.32177 906
50.34232 890
50.36286 944
50.38341 983
50.40396 959
50.42451 877
50.44506 937
50.46560 942
50.48615 930
50.50670 939
50.52725 938
50.54779 944
50.56834 939
50.58889 942
50.60944 945
50.62999 938
50.65053 923
50.67108 924
50.69163 961
50.71218 954
50.73273 895
50.75327 955
50.77382 964
50.79437 961
50.81492 957
50.83546 936
50.85601 906
50.87656 884
50.89711 948
50.91766 966
50.93821 947
50.95875 956
50.97930 923
50.99985 953
51.02040 957
51.04094 921
51.06149 950
51.08204 948
51.10258 963
51.12313 930
51.14368 947
51.16423 909
51.18478 958
51.20533 925
51.22587 878
51.24642 921
51.26697 950
51.28752 953
51.30806 941
51.32861 910
51.34916 938
51.36971 956
51.39025 914
51.41080 949
51.43135 958
51.45190 944
51.47245 882
51.493   972
51.51354 878
51.53409 939
51.55464 955
51.57519 983
51.59573 909
51.61628 894
51.63683 1007
51.65737 919
51.67792 963
51.69847 905
51.71902 896
51.73957 960
51.76012 914
51.78066 982
51.80121 938
51.82176 887
51.84231 906
51.86285 940
51.88340 969
51.90395 927
51.92450 937
51.94504 985
51.96559 968
51.98614 941
52.00669 1015
52.02724 951
52.04779 985
52.06833 963
52.08888 945
52.10943 948
52.12998 947
52.15052 946
52.17107 967
52.19162 925
52.21217 907
52.23271 897
52.25326 940
52.27381 922
52.29436 967
52.31491 925
52.33545 944
52.35600 985
52.37655 977
52.39710 932
52.41764 959
52.43819 983
52.45874 963
52.47929 903
52.49984 949
52.52039 988
52.54093 928
52.56148 934
52.58203 1021
52.60258 919
52.62312 966
52.64367 976
52.66422 897
52.68477 895
52.70531 895
52.72586 970
52.74641 951
52.76696 990
52.78751 942
52.80805 905
52.82860 954
52.84915 931
52.86970 940
52.89024 972
52.91079 979
52.93134 900
52.95189 954
52.97243 996
52.99298 934
53.01353 962
53.03408 923
53.05463 973
53.07518 953
53.09572 966
53.11627 959
53.13682 925
53.15737 963
53.17791 981
53.19846 954
53.21901 924
53.23956 921
53.26010 902
53.28065 944
53.30120 922
53.32175 952
53.3423  916
53.36285 965
53.38339 965
53.40394 934
53.42449 873
53.44503 879
53.46558 945
53.48613 944
53.50668 919
53.52722 1001
53.54777 976
53.56832 912
53.58887 976
53.60942 934
53.62997 888
53.65051 1002
53.67106 952
53.69161 963
53.71216 936
53.73270 968
53.75325 977
53.77380 912
53.79435 926
53.81489 935
53.83544 955
53.85599 943
53.87654 935
53.89709 999
53.91764 946
53.93818 955
53.95873 918
53.97928 900
53.99982 901
54.02037 913
54.04092 974
54.06147 894
54.08202 920
54.10257 905
54.12311 969
54.14366 928
54.16421 1018
54.18476 919
54.20530 944
54.22585 900
54.24640 918
54.26695 977
54.28749 966
54.30804 929
54.32859 922
54.34914 944
54.36969 893
54.39024 968
54.41078 984
54.43133 1027
54.45188 957
54.47243 950
54.49297 921
54.51352 943
54.53407 957
54.55461 991
54.57516 891
54.59571 993
54.61626 939
54.63681 926
54.65736 904
54.67790 955
54.69845 982
54.71900 957
54.73955 924
54.76009 922
54.78064 959
54.80119 914
54.82174 954
54.84228 932
54.86283 959
54.88338 964
54.90393 957
54.92448 916
54.94503 915
54.96557 934
54.98612 925
55.00667 908
55.02722 935
55.04776 950
55.06831 975
55.08886 972
55.10941 991
55.12995 898
55.15050 869
55.17105 922
55.19160 958
55.21215 900
55.23269 943
55.25324 921
55.27379 874
55.29434 950
55.31488 918
55.33543 935
55.35598 924
55.37653 956
55.39707 932
55.41762 941
55.43817 969
55.45872 963
55.47927 935
55.49982 904
55.52036 916
55.54091 935
55.56146 922
55.58201 910
55.60255 956
55.62310 952
55.64365 930
55.66420 972
55.68475 937
55.70529 937
55.72584 896
55.74639 992
55.76694 885
55.78748 937
55.80803 972
55.82858 982
55.84913 958
55.86967 965
55.89022 938
55.91077 880
55.93132 860
55.95187 924
55.97242 932
55.99296 1008
56.01351 908
56.03406 947
56.05461 944
56.07515 879
56.09570 939
56.11625 912
56.13680 972
56.15734 913
56.17789 858
56.19844 962
56.21899 971
56.23954 917
56.26009 919
56.28063 946
56.30118 909
56.32173 946
56.34227 957
56.36282 997
56.38337 934
56.40392 968
56.42446 919
56.44501 936
56.46556 940
56.48611 1014
56.50666 961
56.52721 944
56.54775 961
56.56830 931
56.58885 1003
56.60940 886
56.62994 1006
56.65049 900
56.67104 854
56.69159 961
56.71213 952
56.73268 990
56.75323 968
56.77378 950
56.79433 944
56.81488 962
56.83542 960
56.85597 881
56.87652 923
56.89706 923
56.91761 945
56.93816 985
56.95871 973
56.97925 960
56.99980 970
57.02035 934
57.04090 927
57.06145 990
57.08200 916
57.10254 952
57.12309 912
57.14364 945
57.16419 972
57.18473 944
57.20528 933
57.22583 957
57.24638 904
57.26693 981
57.28747 906
57.30802 991
57.32857 986
57.34912 959
57.36967 937
57.39021 954
57.41076 916
57.43131 956
57.45186 927
57.47240 962
57.49295 933
57.51350 913
57.53405 960
57.5546  971
57.57514 940
57.59569 928
57.61624 944
57.63679 969
57.65733 949
57.67788 995
57.69843 957
57.71898 901
57.73952 911
57.76007 935
57.78062 943
57.80117 973
57.82172 927
57.84227 970
57.86281 985
57.88336 937
57.90391 967
57.92446 980
57.94500 891
57.96555 950
57.98610 955
58.00665 936
58.02719 963
58.04774 966
58.06829 956
58.08884 945
58.10939 939
58.12993 929
58.15048 945
58.17103 980
58.19158 926
58.21212 905
58.23267 960
58.25322 985
58.27377 889
58.29431 929
58.31486 968
58.33541 937
58.35596 944
58.37651 915
58.39706 924
58.41760 969
58.43815 912
58.45870 947
58.47925 952
58.49979 947
58.52034 941
58.54089 921
58.56144 929
58.58198 906
58.60253 935
58.62308 873
58.64363 913
58.66418 911
58.68472 915
58.70527 898
58.72582 952
58.74637 953
58.76691 899
58.78746 961
58.80801 946
58.82856 982
58.84911 949
58.86965 897
58.89020 924
58.91075 951
58.93130 983
58.95185 925
58.97239 934
58.99294 955
59.01349 934
59.03404 971
59.05458 979
59.07513 960
59.09568 928
59.11623 938
59.13678 885
59.15733 962
59.17787 935
59.19842 932
59.21897 950
59.23951 936
59.26006 931
59.28061 947
59.30116 935
59.32170 942
59.34225 982
59.36280 931
59.38335 947
59.4039  911
59.42445 943
59.44499 973
59.46554 944
59.48609 977
59.50664 943
59.52718 917
59.54773 957
59.56828 951
59.58883 975
59.60937 974
59.62992 985
59.65047 946
59.67102 928
59.69157 953
59.71212 946
59.73266 984
59.75321 878
59.77376 863
59.79431 963
59.81485 918
59.83540 919
59.85595 982
59.87649 921
59.89704 936
59.91759 964
59.93814 949
59.95869 931
59.97924 896
59.99978 958
60.02033 930
60.04088 956
60.06143 936
60.08197 941
60.10252 945
60.12307 954
60.14362 958
60.16416 964
60.18471 880
60.20526 908
60.22581 952
60.24636 943
60.26691 916
60.28745 940
60.30800 976
60.32855 934
60.34910 885
60.36964 923
60.39019 932
60.41074 984
60.43129 967
60.45183 975
60.47238 920
60.49293 974
60.51348 923
60.53403 966
60.55457 899
60.57512 960
60.59567 938
60.61622 995
60.63676 903
60.65731 945
60.67786 964
60.69841 989
60.71896 952
60.73951 954
60.76005 924
60.78060 907
60.80115 904
60.82170 962
60.84224 929
60.86279 953
60.88334 941
60.90389 872
60.92443 938
60.94498 993
60.96553 983
60.98608 937
61.00663 1044
61.02717 934
61.04772 995
61.06827 861
61.08882 910
61.10936 905
61.12991 902
61.15046 950
61.17101 922
61.19155 935
61.21210 933
61.23265 927
61.25320 885
61.27375 896
61.2943  939
61.31484 951
61.33539 959
61.35594 976
61.37649 913
61.39703 1014
61.41758 908
61.43813 961
61.45868 922
61.47922 889
61.49977 983
61.52032 943
61.54087 968
61.56142 938
61.58196 961
61.60251 958
61.62306 931
61.64361 976
61.66415 917
61.68470 960
61.70525 937
61.72580 941
61.74634 950
61.76689 972
61.78744 986
61.80799 902
61.82854 889
61.84909 937
61.86963 926
61.89018 982
61.91073 990
61.93128 958
61.95182 945
61.97237 919
61.99292 945
62.01347 946
62.03401 964
62.05456 848
62.07511 924
62.09566 952
62.11621 974
62.13676 907
62.15730 962
62.17785 951
62.19840 971
62.21894 944
62.23949 943
62.26004 913
62.28059 905
62.30114 922
62.32169 983
62.34223 933
62.36278 928
62.38333 956
62.40388 890
62.42442 969
62.44497 982
62.46552 967
62.48607 967
62.50661 935
62.52716 942
62.54771 880
62.56826 938
62.58881 949
62.60936 983
62.62990 980
62.65045 1001
62.67100 936
62.69155 924
62.71209 908
62.73264 959
62.75319 940
62.77373 944
62.79428 926
62.81483 911
62.83538 902
62.85593 963
62.87648 933
62.89702 927
62.91757 973
62.93812 951
62.95867 969
62.97921 1012
62.99976 931
63.02031 917
63.04086 931
63.06140 943
63.08195 909
63.10250 979
63.12305 955
63.1436  944
63.16415 897
63.18469 898
63.20524 936
63.22579 927
63.24634 916
63.26688 929
63.28743 989
63.30798 961
63.32852 982
63.34907 923
63.36962 936
63.39017 982
63.41072 929
63.43127 970
63.45181 968
63.47236 1000
63.49291 890
63.51346 952
63.53400 989
63.55455 931
63.57510 946
63.59565 928
63.61619 906
63.63674 955
63.65729 1005
63.67784 946
63.69839 986
63.71894 986
63.73948 959
63.76003 991
63.78058 916
63.80113 894
63.82167 937
63.84222 891
63.86277 990
63.88332 939
63.90387 922
63.92441 953
63.94496 952
63.96551 944
63.98606 911
64.00660 978
64.02715 890
64.04770 1011
64.06825 966
64.08879 959
64.10934 915
64.12989 965
64.15044 903
64.17099 924
64.19153 994
64.21209 920
64.23263 901
64.25318 919
64.27372 985
64.29428 928
64.31482 940
64.33537 917
64.35591 932
64.37647 940
64.39701 967
64.41756 964
64.43811 967
64.45866 940
64.47921 966
64.49975 950
64.52030 972
64.54084 968
64.56140 929
64.58194 968
64.60249 975
64.62303 937
64.64359 951
64.66413 960
64.68468 966
64.70523 970
64.72578 1033
64.74633 983
64.76687 964
64.78742 960
64.80797 1014
64.82852 998
64.84906 1031
64.86961 985
64.89016 989
64.91071 1010
64.93125 990
64.95180 1078
64.97235 1024
64.99290 1052
65.01345 1087
65.03399 1158
65.05455 1177
65.07509 1103
65.09564 1086
65.11618 1121
65.13673 1101
65.15728 1088
65.17783 1061
65.19838 1127
65.21892 1061
65.23947 1122
65.26002 1045
65.28057 1038
65.30111 1075
65.32167 1032
65.34221 992
65.36276 929
65.38330 959
65.40386 979
65.42440 958
65.44495 936
65.4655  955
65.48605 969
65.50659 946
65.52714 972
65.54769 975
65.56824 928
65.58879 930
65.60933 956
65.62988 929
65.65043 967
65.67098 976
65.69152 957
65.71207 924
65.73262 929
65.75317 914
65.77372 964
65.79426 948
65.81481 945
65.83536 988
65.85591 939
65.87645 874
65.89700 970
65.91755 949
65.93810 958
65.95864 925
65.97919 916
65.99974 970
66.02029 946
66.04084 963
66.06138 949
66.08194 919
66.10248 934
66.12303 907
66.14357 945
66.16413 986
66.18467 922
66.20522 924
66.22576 908
66.24631 921
66.26686 952
66.28741 931
66.30796 934
66.32850 988
66.34906 977
66.36960 913
66.39015 885
66.41069 900
66.43125 963
66.45179 938
66.47234 945
66.49288 892
66.51344 960
66.53398 844
66.55453 960
66.57508 925
66.59563 950
66.61618 956
66.63672 940
66.65727 942
66.67782 937
66.69837 908
66.71891 894
66.73946 937
66.76001 939
66.78056 991
66.80110 998
66.82165 970
66.84220 920
66.86275 951
66.88330 1002
66.90384 933
66.92439 980
66.94494 934
66.96549 980
66.98603 912
67.00658 938
67.02713 958
67.04768 915
67.06823 921
67.08877 929
67.10932 971
67.12987 928
67.15042 989
67.17096 937
67.19152 996
67.21206 944
67.23261 942
67.25315 966
67.27371 967
67.29425 977
67.31480 982
67.33535 957
67.35590 959
67.37645 893
67.39699 1004
67.41754 930
67.43808 881
67.45864 911
67.47918 900
67.49973 944
67.52027 937
67.54083 932
67.56137 962
67.58192 950
67.60247 1007
67.62302 1002
67.64357 957
67.66411 946
67.68466 947
67.70521 933
67.72576 887
67.74630 961
67.76685 908
67.78740 894
67.80795 923
67.82849 957
67.84904 955
67.86959 986
67.89014 938
67.91069 951
67.93123 912
67.95179 961
67.97233 913
67.99288 941
68.01342 912
68.03397 949
68.05452 887
68.07507 942
68.09561 874
68.11616 966
68.13671 962
68.15726 930
68.17781 991
68.19835 972
68.21891 896
68.23945 995
68.26000 907
68.28054 940
68.30110 904
68.32164 943
68.34219 940
68.36274 935
68.38329 985
68.40383 1006
68.42438 964
68.44493 955
68.46548 970
68.48603 960
68.50657 903
68.52712 946
68.54767 952
68.56822 929
68.58876 958
68.60931 913
68.62986 912
68.65041 916
68.67095 906
68.69150 926
68.71205 908
68.73260 920
68.75315 932
68.77369 929
68.79424 970
68.81479 988
68.83534 909
68.85588 949
68.87643 926
68.89698 949
68.91753 933
68.93808 944
68.95862 903
68.97917 970
68.99972 938
69.02027 928
69.04081 928
69.06137 952
69.08191 960
69.10246 935
69.12300 961
69.14356 863
69.16410 926
69.18465 973
69.2052  972
69.22574 905
69.2463  928
69.26684 928
69.28739 911
69.30793 944
69.32849 934
69.34903 911
69.36958 901
69.39012 912
69.41068 895
69.43122 987
69.45177 986
69.47232 908
69.49287 875
69.51342 973
69.53396 898
69.55451 965
69.57506 910
69.59561 948
69.61615 922
69.63670 905
69.65725 974
69.67780 996
69.69834 952
69.71889 939
69.73944 948
69.75999 943
69.78054 923
69.80108 954
69.82163 917
69.84218 924
69.86273 910
69.88327 981
69.90382 940
69.92437 946
69.94492 945
69.96546 965
69.98601 980
70.00656 933
70.02711 917
70.04766 946
70.06820 921
70.08876 942
70.10930 949
70.12985 930
70.15039 982
70.17095 936
70.19149 908
70.21204 949
70.23259 957
70.25314 955
70.27368 883
70.29423 978
70.31478 936
70.33532 918
70.35588 981
70.37642 885
70.39697 946
70.41751 917
70.43807 908
70.45861 896
70.47916 954
70.49971 964
70.52026 1020
70.54081 944
70.56135 940
70.58190 953
70.60245 900
70.62300 938
70.64354 978
70.66409 938
70.68464 938
70.70519 937
70.72573 970
70.74628 989
70.76683 955
70.78738 911
70.80793 975
70.82847 985
70.84903 992
70.86957 960
70.89012 1003
70.91066 890
70.93121 916
70.95176 949
70.97231 908
70.99285 977
71.01340 955
71.03395 976
71.05450 946
71.07505 941
71.09559 903
71.11615 915
71.13669 996
71.15724 941
71.17778 969
71.19834 886
71.21888 933
71.23943 897
71.25997 922
71.28053 930
71.30107 938
71.32162 934
71.34217 917
71.36272 910
71.38327 949
71.40381 881
71.42436 967
71.44491 908
71.46546 978
71.48600 908
71.50655 926
71.5271  925
71.54765 979
71.56819 955
71.58874 915
71.60929 927
71.62984 988
71.65039 868
71.67093 955
71.69148 926
71.71203 902
71.73258 943
71.75312 930
71.77367 979
71.79422 946
71.81477 986
71.83532 945
71.85586 985
71.87641 934
71.89696 951
71.91751 921
71.93805 888
71.95861 1011
71.97915 964
71.99970 940
72.02024 980
72.04080 961
72.06134 941
72.08189 944
72.10244 901
72.12298 950
72.14353 924
72.16408 940
72.18463 954
72.20517 871
72.22573 949
72.24627 929
72.26682 930
72.28736 915
72.30792 979
72.32846 914
72.34901 969
72.36956 906
72.39011 955
72.41066 900
72.43120 962
72.45175 982
72.47230 912
72.49285 949
72.51339 916
72.53394 965
72.55449 912
72.57504 970
72.59558 961
72.61613 967
72.63668 986
72.65723 982
72.67778 968
72.69832 972
72.71887 929
72.73942 978
72.75997 938
72.78051 937
72.80106 952
72.82161 1003
72.84216 953
72.86270 944
72.88325 931
72.90380 920
72.92435 940
72.94490 942
72.96544 1044
72.986   913
73.00654 942
73.02709 935
73.04763 902
73.06819 971
73.08873 986
73.10928 900
73.12982 949
73.15038 1001
73.17092 902
73.19147 958
73.21202 927
73.23257 885
73.25312 946
73.27366 989
73.29421 944
73.31475 909
73.33531 940
73.35585 939
73.37640 958
73.39695 985
73.41750 942
73.43804 970
73.45859 960
73.47914 915
73.49969 873
73.52024 917
73.54078 944
73.56133 973
73.58188 949
73.60243 975
73.62297 967
73.64352 897
73.66407 954
73.68462 925
73.70517 1000
73.72571 956
73.74626 899
73.76681 912
73.78736 953
73.80790 943
73.82846 1005
73.84900 927
73.86955 998
73.89009 962
73.91064 935
73.93119 914
73.95174 982
73.97229 943
73.99283 1008
74.01339 925
74.03393 898
74.05448 982
74.07502 965
74.09558 913
74.11612 944
74.13667 897
74.15721 948
74.17777 942
74.19831 914
74.21886 994
74.23941 882
74.25996 954
74.28051 936
74.30105 935
74.32160 960
74.34215 898
74.36270 997
74.38324 947
74.40379 985
74.42433 942
74.44489 955
74.46543 924
74.48598 916
74.50653 897
74.52708 930
74.54763 924
74.56817 951
74.58872 1001
74.60927 1007
74.62982 987
74.65036 912
74.67091 998
74.69146 993
74.71201 938
74.73255 882
74.75310 960
74.77365 924
74.79420 946
74.81475 965
74.83529 997
74.85585 915
74.87639 937
74.89694 932
74.91748 929
74.93804 919
74.95858 857
74.97913 976
74.99968 930
75.02022 965
75.04077 922
75.06132 961
75.08187 932
75.10241 983
75.12297 934
75.14351 922
75.16406 929
75.18460 951
75.20516 941
75.22570 952
75.24625 936
75.2668  944
75.28735 929
75.30789 962
75.32844 961
75.34899 1012
75.36954 993
75.39009 959
75.41063 968
75.43118 978
75.45173 891
75.47228 929
75.49282 932
75.51337 903
75.53392 989
75.55447 936
75.57502 950
75.59556 900
75.61611 946
75.63666 929
75.65721 916
75.67775 990
75.69830 918
75.71885 959
75.73940 1003
75.75994 981
75.78049 983
75.80104 993
75.82159 918
75.84214 978
75.86268 1004
75.88324 925
75.90378 912
75.92433 934
75.94487 894
75.96543 985
75.98597 935
76.00652 989
76.02706 970
76.04762 939
76.06816 880
76.08871 990
76.10926 975
76.12981 931
76.15036 977
76.17090 961
76.19145 955
76.21199 925
76.23255 953
76.25309 948
76.27364 924
76.29418 945
76.31474 962
76.33528 908
76.35583 915
76.37638 969
76.39693 1010
76.41748 986
76.43802 924
76.45857 944
76.47912 931
76.49967 998
76.52021 971
76.54076 939
76.56131 963
76.58186 916
76.60240 957
76.62295 986
76.64350 909
76.66405 947
76.68460 918
76.70514 920
76.7257  934
76.74624 929
76.76679 1026
76.78733 962
76.80788 974
76.82843 945
76.84898 917
76.86953 963
76.89007 935
76.91062 984
76.93117 943
76.95172 993
76.97226 984
76.99282 924
77.01336 954
77.03391 994
77.05445 953
77.07501 952
77.09555 927
77.11610 918
77.13665 922
77.15720 949
77.17775 1009
77.19829 934
77.21884 969
77.23939 990
77.25994 952
77.28048 956
77.30103 935
77.32158 1010
77.34213 941
77.36267 949
77.38322 918
77.40377 967
77.42432 956
77.44487 951
77.46541 923
77.48596 922
77.50651 995
77.52706 977
77.54760 910
77.56815 877
77.58870 890
77.60925 921
77.62979 956
77.65034 961
77.67089 918
77.69144 942
77.71199 1010
77.73253 895
77.75309 927
77.77363 949
77.79418 955
77.81472 914
77.83528 914
77.85582 966
77.87637 939
77.89691 929
77.91747 932
77.93801 945
77.95856 887
77.97911 916
77.99965 934
78.02021 980
78.04075 969
78.06130 973
78.08184 955
78.10240 900
78.12294 915
78.14349 922
78.16404 964
78.18459 900
78.20513 989
78.22568 952
78.24623 962
78.26678 895
78.28733 956
78.30787 960
78.32842 940
78.34897 945
78.36952 951
78.39006 977
78.41061 988
78.43116 974
78.45171 882
78.47226 923
78.49280 871
78.51335 917
78.53390 931
78.55445 965
78.57499 953
78.59554 1003
78.61609 968
78.63664 961
78.65718 924
78.67773 911
78.69828 958
78.71883 966
78.73938 974
78.75992 968
78.78047 931
78.80102 946
78.82157 949
78.84211 966
78.86267 898
78.88321 946
78.90376 935
78.92430 960
78.94486 890
78.96540 958
78.98595 904
79.0065  944
79.02705 929
79.0476  972
79.06814 961
79.08869 957
79.10923 984
79.12979 978
79.15033 962
79.17088 950
79.19142 942
79.21198 911
79.23252 960
79.25307 945
79.27362 957
79.29417 965
79.31472 936
79.33526 966
79.35581 932
79.37636 965
79.39691 933
79.41745 928
79.43800 920
79.45855 942
79.47910 954
79.49964 932
79.52019 983
79.54074 945
79.56129 923
79.58184 939
79.60238 968
79.62294 965
79.64348 893
79.66403 974
79.68457 946
79.70512 940
79.72567 917
79.74622 969
79.76676 967
79.78731 947
79.80786 967
79.82841 939
79.84896 1016
79.86950 947
79.89006 941
79.91060 954
79.93115 1009
79.95169 997
79.97225 921
79.99279 987
80.01334 957
80.03389 941
80.05444 969
80.07498 955
80.09553 931
80.11608 925
80.13663 949
80.15718 987
80.17772 1015
80.19827 928
80.21882 927
80.23937 940
80.25991 978
80.28046 962
80.30101 936
80.32156 957
80.34211 992
80.36265 967
80.38320 962
80.40375 926
80.42430 955
80.44484 966
80.46539 1034
80.48594 945
80.50649 997
80.52703 949
80.54758 965
80.56813 892
80.58868 990
80.60923 992
80.62977 950
80.65033 966
80.67087 953
80.69142 941
80.71196 976
80.73252 990
80.75306 951
80.77361 1005
80.79415 978
80.81471 960
80.83525 988
80.85580 930
80.87635 920
80.89689 968
80.91745 972
80.93799 1003
80.95854 984
80.97908 885
80.99964 934
81.02018 918
81.04073 899
81.06127 922
81.08183 914
81.10237 939
81.12292 928
81.14347 936
81.16402 958
81.18457 931
81.20511 1005
81.22566 936
81.24621 912
81.26676 925
81.28730 985
81.30785 959
81.32840 937
81.34895 918
81.36949 993
81.39004 953
81.41059 953
81.43114 984
81.45169 1002
81.47223 958
81.49278 1006
81.51333 993
81.53388 951
81.55442 948
81.57497 945
81.59552 991
81.61607 950
81.63662 941
81.65716 979
81.67771 993
81.69826 952
81.71881 970
81.73935 941
81.75991 962
81.78045 964
81.80100 945
81.82154 1005
81.84210 985
81.86264 962
81.88319 1018
81.90374 921
81.92429 990
81.94483 963
81.96538 999
81.98593 1037
82.00648 925
82.02703 1028
82.04757 999
82.06812 1002
82.08866 1043
82.10922 989
82.12976 1076
82.15031 1049
82.17086 1112
82.19141 1056
82.21196 1107
82.23250 1126
82.25305 1175
82.27360 1262
82.29415 1298
82.31469 1321
82.33524 1385
82.35579 1458
82.37634 1379
82.39688 1344
82.41743 1300
82.43798 1252
82.45853 1237
82.47908 1186
82.49962 1226
82.52018 1219
82.54072 1201
82.56127 1198
82.58181 1266
82.60237 1295
82.62291 1192
82.64346 1179
82.66400 1208
82.68455 1123
82.70510 1095
82.72565 1053
82.74620 1070
82.76674 1022
82.7873  968
82.80784 988
82.82839 994
82.84893 1018
82.86949 1023
82.89003 1000
82.91058 981
82.93112 942
82.95168 1029
82.97222 988
82.99277 936
83.01332 975
83.03387 1011
83.05442 954
83.07496 981
83.09551 946
83.11606 992
83.13661 918
83.15715 972
83.17770 919
83.19825 956
83.21880 998
83.23934 953
83.25989 965
83.28044 991
83.30099 940
83.32154 981
83.34208 993
83.36263 944
83.38318 974
83.40373 947
83.42427 1006
83.44482 955
83.46537 975
83.48592 946
83.50647 941
83.52701 983
83.54756 956
83.56811 909
83.58866 934
83.60920 915
83.62976 959
83.65030 908
83.67085 971
83.69139 984
83.71195 939
83.73249 999
83.75304 971
83.77359 940
83.79413 944
83.81469 975
83.83523 965
83.85578 969
83.87632 916
83.89688 950
83.91742 940
83.93797 933
83.95851 945
83.97907 958
83.99961 933
84.02016 930
84.04071 920
84.06126 953
84.08181 1004
84.10235 941
84.12290 955
84.14345 944
84.16400 929
84.18454 927
84.20509 977
84.22564 931
84.24619 926
84.26673 984
84.28728 950
84.30783 949
84.32838 942
84.34893 1009
84.36947 945
84.39002 928
84.41057 915
84.43112 958
84.45166 945
84.47221 940
84.49276 956
84.51331 906
84.53385 994
84.55440 927
84.57495 969
84.59550 987
84.61605 1021
84.63659 977
84.65715 978
84.67769 980
84.69824 926
84.71878 960
84.73934 957
84.75988 1009
84.78043 928
84.80098 932
84.82153 927
84.84207 976
84.86262 961
84.88317 925
84.90372 950
84.92427 973
84.94481 941
84.96536 953
84.98590 952
85.00646 993
85.02700 953
85.04755 1002
85.0681  1037
85.08865 939
85.1092  986
85.12974 951
85.15029 917
85.17084 997
85.19139 1000
85.21193 925
85.23248 992
85.25303 950
85.27358 985
85.29412 927
85.31467 871
85.33522 970
85.35577 924
85.37632 970
85.39686 915
85.41741 958
85.43796 985
85.45851 944
85.47905 944
85.49961 941
85.52015 923
85.54070 943
85.56124 988
85.58179 933
85.60234 949
85.62289 932
85.64344 1014
85.66398 970
85.68454 1022
85.70508 971
85.72563 990
85.74617 936
85.76673 937
85.78727 952
85.80782 943
85.82836 935
85.84892 949
85.86946 924
85.89001 953
85.91056 923
85.93111 968
85.95166 977
85.97220 964
85.99275 928
86.01330 972
86.03385 960
86.05439 899
86.07494 928
86.09549 934
86.11604 968
86.13658 989
86.15713 929
86.17768 971
86.19823 951
86.21878 951
86.23932 997
86.25987 961
86.28042 959
86.30097 952
86.32151 964
86.34206 951
86.36261 949
86.38316 952
86.40370 886
86.42425 987
86.44480 984
86.46535 943
86.48590 987
86.50644 954
86.527   932
86.54754 952
86.56809 917
86.58863 911
86.60919 1001
86.62973 929
86.65028 946
86.67083 934
86.69138 1010
86.71192 948
86.73247 989
86.75302 931
86.77356 968
86.79412 990
86.81466 906
86.83521 940
86.85575 951
86.87631 1017
86.89685 946
86.91740 912
86.93795 925
86.95850 897
86.97905 944
86.99959 921
87.02014 930
87.04069 951
87.06124 947
87.08178 963
87.10233 947
87.12288 951
87.14343 951
87.16397 934
87.18452 956
87.20507 996
87.22562 952
87.24617 934
87.26671 937
87.28726 957
87.30781 953
87.32836 964
87.34890 958
87.36945 964
87.39000 976
87.41055 1010
87.43109 990
87.45164 954
87.47219 929
87.49274 965
87.51329 1021
87.53383 960
87.55439 926
87.57493 940
87.59548 906
87.61602 937
87.63658 945
87.65712 933
87.67767 969
87.69821 970
87.71877 988
87.73931 932
87.75986 951
87.78041 1025
87.80096 972
87.82151 971
87.84205 1013
87.86260 980
87.88314 970
87.90370 966
87.92424 1046
87.94479 975
87.96534 964
87.98589 910
88.00643 911
88.02698 952
88.04753 944
88.06808 964
88.08863 900
88.10917 937
88.12972 978
88.15027 953
88.17082 944
88.19136 911
88.21191 955
88.23246 948
88.25301 925
88.27356 917
88.29410 987
88.31465 942
88.33520 904
88.35575 951
88.37629 932
88.39685 993
88.41739 928
88.43794 925
88.45848 917
88.47903 950
88.49958 952
88.52013 961
88.54068 957
88.56122 1012
88.58177 948
88.60232 916
88.62287 943
88.64341 954
88.66397 971
88.68451 961
88.70506 957
88.72560 938
88.74616 975
88.76670 1001
88.78725 955
88.8078  937
88.82835 952
88.8489  933
88.86944 954
88.88999 964
88.91054 967
88.93109 961
88.95163 976
88.97218 993
88.99273 944
89.01328 930
89.03382 928
89.05437 910
89.07492 961
89.09547 988
89.11602 951
89.13656 984
89.15711 982
89.17766 998
89.19821 914
89.21875 938
89.23930 921
89.25985 967
89.28040 940
89.30094 948
89.32149 932
89.34204 961
89.36259 919
89.38314 908
89.40368 974
89.42424 992
89.44478 946
89.46533 967
89.48587 961
89.50643 950
89.52697 914
89.54752 953
89.56806 999
89.58862 965
89.60916 975
89.62971 882
89.65026 912
89.67080 928
89.69136 923
89.71190 976
89.73245 958
89.75299 947
89.77355 915
89.79409 999
89.81464 920
89.83519 894
89.85574 943
89.87628 972
89.89683 1018
89.91738 995
89.93793 966
89.95848 969
89.97902 952
89.99957 987
90.02012 950
90.04067 1037
90.06121 977
90.08176 984
90.10231 999
90.12286 940
90.14341 948
90.16395 921
90.18450 939
90.20505 975
90.22560 953
90.24614 1006
90.26669 979
90.28724 967
90.30779 962
90.32833 934
90.34888 964
90.36943 977
90.38998 953
90.41053 962
90.43107 985
90.45163 965
90.47217 947
90.49272 954
90.51326 949
90.53382 939
90.55436 908
90.57491 954
90.59545 946
90.61601 922
90.63655 965
90.65710 915
90.67765 950
90.69820 902
90.71875 968
90.73929 1004
90.75984 926
90.78039 940
90.80094 933
90.82148 996
90.84203 937
90.86257 968
90.88313 1002
90.90367 937
90.92422 970
90.94477 991
90.96532 957
90.98587 920
91.00641 964
91.02696 963
91.04751 949
91.06806 1040
91.08860 968
91.10915 955
91.12970 937
91.15025 964
91.17079 972
91.19134 975
91.21189 963
91.23244 995
91.25299 948
91.27353 941
91.29409 955
91.31463 972
91.33518 959
91.35572 964
91.37627 1003
91.39682 987
91.41737 962
91.43792 974
91.45846 946
91.47901 1033
91.49956 986
91.52011 979
91.54065 976
91.56121 925
91.58175 961
91.60230 909
91.62284 974
91.64340 987
91.66394 945
91.68449 935
91.70504 906
91.72559 884
91.74614 964
91.76668 918
91.78723 986
91.80778 972
91.82833 980
91.84887 918
91.86942 917
91.88997 942
91.91052 908
91.93106 995
91.95161 994
91.97216 981
91.99271 945
92.01326 985
92.03380 974
92.05435 976
92.07490 965
92.09545 937
92.11599 1024
92.13654 997
92.15709 954
92.17764 963
92.19818 934
92.21873 912
92.23928 988
92.25983 1007
92.28038 938
92.30092 993
92.32148 969
92.34202 975
92.36257 946
92.38311 991
92.40367 916
92.42421 974
92.44476 966
92.46530 916
92.48586 1019
92.50640 892
92.52695 923
92.54750 967
92.56804 967
92.5886  976
92.60914 906
92.62969 1010
92.65023 936
92.67079 972
92.69133 943
92.71188 1010
92.73243 968
92.75298 962
92.77352 1020
92.79407 917
92.81462 938
92.83517 963
92.85572 967
92.87626 969
92.89681 972
92.91736 937
92.93791 1010
92.95845 950
92.97900 941
92.99955 936
93.02010 998
93.04064 935
93.06119 939
93.08174 975
93.10229 910
93.12284 945
93.14338 1001
93.16393 925
93.18448 1039
93.20503 976
93.22557 980
93.24612 962
93.26667 959
93.28722 987
93.30777 968
93.32831 984
93.34886 952
93.36941 941
93.38996 954
93.41050 1012
93.43106 905
93.45160 971
93.47215 958
93.49269 920
93.51325 896
93.53379 928
93.55434 976
93.57489 920
93.59544 982
93.61599 936
93.63653 979
93.65708 933
93.67763 917
93.69818 943
93.71872 951
93.73927 968
93.75981 938
93.78037 975
93.80091 963
93.82146 915
93.84201 935
93.86256 923
93.88311 977
93.90365 972
93.92420 964
93.94475 955
93.96530 926
93.98584 933
94.00639 971
94.02694 980
94.04749 961
94.06803 923
94.08858 969
94.10913 955
94.12968 973
94.15023 943
94.17077 959
94.19133 923
94.21187 942
94.23242 915
94.25296 940
94.27352 947
94.29406 930
94.31461 959
94.33515 943
94.35570 943
94.37625 962
94.39680 952
94.41735 971
94.43789 979
94.45845 913
94.47899 913
94.49954 962
94.52008 1019
94.54064 921
94.56118 949
94.58173 892
94.60228 935
94.62283 964
94.64337 959
94.66392 913
94.68447 954
94.70502 984
94.72557 889
94.74611 934
94.76666 971
94.78721 922
94.80776 920
94.82830 988
94.84885 987
94.86940 971
94.88995 1003
94.9105  964
94.93104 962
94.95159 958
94.97214 967
94.99269 992
95.01323 971
95.03378 934
95.05433 951
95.07488 978
95.09542 988
95.11597 942
95.13652 910
95.15707 948
95.17762 978
95.19816 977
95.21871 946
95.23926 946
95.25981 994
95.28035 970
95.30091 938
95.32145 921
95.34200 995
95.36254 965
95.38310 941
95.40364 995
95.42419 1001
95.44474 985
95.46528 993
95.48584 964
95.50638 967
95.52693 966
95.54747 965
95.56803 946
95.58857 950
95.60912 964
95.62966 945
95.65022 923
95.67076 993
95.69131 963
95.71186 941
95.73241 960
95.75296 927
95.77350 986
95.79405 971
95.81460 1003
95.83515 994
95.85569 934
95.87624 908
95.89679 955
95.91734 956
95.93788 953
95.95843 954
95.97898 973
95.99953 938
96.02008 981
96.04062 1000
96.06117 930
96.08172 996
96.10227 1032
96.12281 999
96.14336 967
96.16391 983
96.18446 912
96.20500 953
96.22555 919
96.24610 950
96.26665 945
96.28720 997
96.30774 985
96.3283  932
96.34884 977
96.36939 970
96.38993 948
96.41049 943
96.43103 981
96.45158 945
96.47213 964
96.49268 957
96.51322 973
96.53377 973
96.55432 962
96.57487 988
96.59542 982
96.61596 985
96.63651 920
96.65705 912
96.67761 1012
96.69815 1028
96.71870 1004
96.73925 997
96.75980 985
96.78035 929
96.80089 986
96.82144 962
96.84199 943
96.86254 963
96.88308 939
96.90363 1016
96.92418 963
96.94473 1017
96.96527 931
96.98582 960
97.00637 935
97.02692 897
97.04747 973
97.06801 1025
97.08857 997
97.10911 973
97.12966 995
97.15020 931
97.17076 1005
97.19130 935
97.21185 986
97.23239 952
97.25294 957
97.27349 948
97.29404 970
97.31459 937
97.33513 980
97.35569 945
97.37623 938
97.39678 953
97.41732 948
97.43788 955
97.45842 953
97.47897 974
97.49951 1021
97.52007 979
97.54061 916
97.56116 953
97.58171 968
97.60226 979
97.62281 923
97.64335 895
97.66390 966
97.68445 956
97.70500 987
97.72554 954
97.74609 1002
97.76664 935
97.78719 939
97.80773 967
97.82828 1017
97.84883 955
97.86938 948
97.88993 931
97.91047 924
97.93102 951
97.95157 952
97.97212 930
97.99266 930
98.01321 984
98.03376 955
98.05431 941
98.07486 948
98.09540 980
98.11595 894
98.13650 936
98.15705 986
98.17759 964
98.19815 968
98.21869 959
98.23924 969
98.25978 913
98.28034 972
98.30088 949
98.32143 957
98.34198 956
98.36253 996
98.38308 1011
98.40362 974
98.42417 1056
98.44471 1009
98.46527 936
98.48581 1000
98.50636 964
98.52690 972
98.54746 963
98.56800 986
98.58855 1041
98.6091  981
98.62965 1016
98.6502  965
98.67074 979
98.69129 1002
98.71184 999
98.73239 1019
98.75293 1002
98.77348 1013
98.79403 1016
98.81458 1102
98.83512 1081
98.85567 1092
98.87622 1112
98.89677 1048
98.91732 1099
98.93786 1121
98.95842 1078
98.97896 1147
98.99951 1104
99.02005 1119
99.04060 1070
99.06115 1011
99.08170 1038
99.10224 1040
99.12279 1021
99.14334 1008
99.16389 1046
99.18444 994
99.20498 1034
99.22554 1050
99.24608 986
99.26663 1081
99.28717 1093
99.30773 1046
99.32827 1058
99.34882 1009
99.36937 980
99.38992 1025
99.41046 1008
99.43101 1001
99.45156 1024
99.47211 996
99.49266 931
99.51320 970
99.53375 963
99.55429 984
99.57485 1002
99.59539 983
99.61594 979
99.63649 976
99.65704 955
99.67758 952
99.69813 1031
99.71868 1012
99.73923 955
99.75978 963
99.78032 955
99.80087 928
99.82142 954
99.84197 1015
99.86251 955
99.88306 991
99.90361 987
99.92416 930
99.94471 1001
99.96525 958
99.98580 967
100.0063 944
100.0269 977
100.0474 912
100.0680 944
100.0885 995
100.1090 956
100.1296 983
100.1501 1016
100.1707 906
100.1912 911
100.2118 948
100.2323 942
100.2529 969
100.2734 946
100.2940 1008
100.3145 991
100.3351 1020
100.3556 901
100.3762 1010
100.3967 959
100.4173 1004
100.4378 1002
100.4584 979
100.4789 984
100.4995 983
100.5200 968
100.5405 892
100.5611 948
100.5816 972
100.6022 979
100.6227 963
100.6433 977
100.6638 919
100.6844 930
100.7049 951
100.7255 1009
100.7460 945
100.7666 962
100.7871 1006
100.8077 1005
100.8282 962
100.8488 929
100.8693 983
100.8899 978
100.9104 977
100.9310 990
100.9515 940
100.9720 991
100.9926 942
101.0131 1004
101.0337 973
101.0542 998
101.0748 976
101.0953 954
101.1159 921
101.1364 1006
101.1570 926
101.1775 970
101.1981 994
101.2186 961
101.2392 963
101.2597 1009
101.2803 991
101.3008 951
101.3214 917
101.3419 968
101.3625 990
101.3830 978
101.4036 985
101.4241 924
101.4447 954
101.4652 978
101.4857 898
101.5063 898
101.5268 950
101.5474 917
101.5679 973
101.5885 951
101.6090 974
101.6296 946
101.6501 981
101.6707 953
101.6912 891
101.7118 968
101.7323 964
101.7529 957
101.7734 943
101.7940 911
101.8145 953
101.8351 900
101.8556 914
101.8762 929
101.8967 902
101.9172 957
101.9378 1026
101.9583 962
101.9789 957
101.9994 918
102.0200 999
102.0405 952
102.0611 962
102.0816 987
102.1022 999
102.1227 975
102.1433 977
102.1638 1001
102.1844 1004
102.2049 927
102.2255 932
102.2460 995
102.2666 971
102.2871 978
102.3077 880
102.3282 1026
102.3488 934
102.3693 964
102.3899 1003
102.4104 992
102.4309 942
102.4515 961
102.4720 933
102.4926 942
102.5131 998
102.5337 877
102.5542 1053
102.5748 955
102.5953 970
102.6159 1000
102.6364 942
102.6570 927
102.6775 985
102.6981 958
102.7186 974
102.7392 994
102.7597 951
102.7803 930
102.8008 936
102.8214 956
102.8419 967
102.8624 973
102.8830 943
102.9035 976
102.9241 968
102.9446 1007
102.9652 979
102.9857 994
103.0063 1000
103.0268 994
103.0474 958
103.0679 952
103.0885 1007
103.1090 964
103.1296 900
103.1501 921
103.1707 918
103.1912 964
103.2118 964
103.2323 998
103.2529 944
103.2734 927
103.2939 956
103.3145 950
103.3350 950
103.3556 1013
103.3761 991
103.3967 937
103.4172 975
103.4378 961
103.4583 919
103.4789 970
103.4994 938
103.5200 942
103.5405 919
103.5611 990
103.5816 1001
103.6022 981
103.6227 944
103.6433 997
103.6638 990
103.6844 955
103.7049 982
103.7255 933
103.7460 962
103.7666 1003
103.7871 1012
103.8076 1014
103.8282 966
103.8487 921
103.8693 954
103.8898 951
103.9104 946
103.9309 1000
103.9515 988
103.9720 941
103.9926 947
104.0131 977
104.0337 990
104.0542 945
104.0748 1007
104.0953 951
104.1159 955
104.1364 934
104.1570 1016
104.1775 946
104.1981 990
104.2186 973
104.2391 970
104.2597 973
104.2802 952
104.3008 942
104.3213 952
104.3419 973
104.3624 1017
104.3830 967
104.4035 977
104.4241 975
104.4446 938
104.4652 962
104.4857 1044
104.5063 975
104.5268 930
104.5474 988
104.5679 968
104.5885 977
104.6090 985
104.6296 982
104.6501 978
104.6707 958
104.6912 953
104.7118 985
104.7323 961
104.7528 931
104.7734 964
104.7939 945
104.8145 998
104.8350 1022
104.8556 952
104.8761 975
104.8967 906
104.9172 982
104.9378 989
104.9583 977
104.9789 947
104.9994 897
105.0200 918
105.0405 879
105.0611 949
105.0816 986
105.1022 933
105.1227 941
105.1433 936
105.1638 900
105.1844 946
105.2049 916
105.2254 981
105.2460 970
105.2665 948
105.2871 983
105.3076 963
105.3282 961
105.3487 1011
105.3693 968
105.3898 971
105.4104 938
105.4309 957
105.4515 924
105.4720 983
105.4926 951
105.5131 930
105.5337 949
105.5542 962
105.5748 933
105.5953 948
105.6159 972
105.6364 954
105.6569 927
105.6775 976
105.6980 948
105.7186 964
105.7391 935
105.7597 915
105.7802 980
105.8008 937
105.8213 906
105.8419 1004
105.8624 994
105.8830 978
105.9035 1000
105.9241 967
105.9446 923
105.9652 946
105.9857 965
106.0063 983
106.0268 920
106.0474 951
106.0679 941
106.0885 943
106.1090 973
106.1296 974
106.1501 926
106.1706 985
106.1912 926
106.2117 891
106.2323 965
106.2528 979
106.2734 942
106.2939 931
106.3145 996
106.3350 975
106.3556 982
106.3761 977
106.3967 962
106.4172 1005
106.4378 926
106.4583 976
106.4789 948
106.4994 977
106.5200 917
106.5405 987
106.5611 941
106.5816 935
106.6021 944
106.6227 993
106.6432 994
106.6638 956
106.6843 985
106.7049 980
106.7254 972
106.7460 1019
106.7665 945
106.7871 910
106.8076 871
106.8282 1104
106.8487 883
106.8693 978
106.8898 955
106.9104 949
106.9309 921
106.9515 991
106.9720 939
106.9926 983
107.0131 940
107.0336 970
107.0542 941
107.0747 958
107.0953 964
107.1158 897
107.1364 950
107.1569 946
107.1775 950
107.1980 976
107.2186 937
107.2391 901
107.2597 1016
107.2802 920
107.3008 924
107.3213 948
107.3419 957
107.3624 940
107.3830 929
107.4035 995
107.4241 932
107.4446 970
107.4652 916
107.4857 943
107.5063 915
107.5268 915
107.5473 938
107.5679 946
107.5884 987
107.6090 960
107.6295 982
107.6501 942
107.6706 930
107.6912 968
107.7117 937
107.7323 937
107.7528 897
107.7734 927
107.7939 938
107.8145 979
107.8350 900
107.8556 915
107.8761 924
107.8967 950
107.9172 932
107.9378 988
107.9583 929
107.9788 935
107.9994 982
108.0199 945
108.0405 893
108.0610 911
108.0816 945
108.1021 916
108.1227 939
108.1432 950
108.1638 900
108.1843 956
108.2049 896
108.2254 967
108.2460 912
108.2665 937
108.2871 899
108.3076 918
108.3282 963
108.3487 952
108.3693 902
108.3898 924
108.4104 919
108.4309 901
108.4515 894
108.4720 863
108.4925 902
108.5131 955
108.5336 898
108.5542 908
108.5747 933
108.5953 925
108.6158 871
108.6364 872
108.6569 933
108.6775 926
108.6980 958
108.7186 970
108.7391 949
108.7597 950
108.7802 980
108.8008 873
108.8213 976
108.8419 915
108.8624 945
108.8830 846
108.9035 900
108.9240 904
108.9446 943
108.9651 902
108.9857 889
109.0062 876
109.0268 927
109.0473 907
109.0679 915
109.0884 931
109.1090 891
109.1295 938
109.1501 911
109.1706 904
109.1912 877
109.2117 867
109.2323 886
109.2528 886
109.2734 923
109.2939 874
109.3145 920
109.3350 923
109.3556 877
109.3761 888
109.3966 900
109.4172 901
109.4377 873
109.4583 913
109.4788 927
109.4994 927
109.5199 888
109.5405 884
109.5610 874
109.5816 927
109.6021 946
109.6227 935
109.6432 817
109.6638 872
109.6843 877
109.7049 886
109.7254 929
109.7460 865
109.7665 925
109.7871 881
109.8076 902
109.8282 922
109.8487 868
109.8693 890
109.8898 852
109.9103 898
109.9309 872
109.9514 878
109.9720 858
109.9925 876
110.0131 835
110.0336 865
110.0542 901
110.0747 874
110.0953 888
110.1158 821
110.1364 823
110.1569 884
110.1775 853
110.1980 775
110.2186 849
110.2391 859
110.2597 827
110.2802 824
110.3008 866
110.3213 876
110.3418 845
110.3624 839
110.3829 801
110.4035 808
110.4240 856
110.4446 842
110.4651 872
110.4857 897
110.5062 782
110.5268 768
110.5473 833
110.5679 810
110.5884 820
110.6090 850
110.6295 815
110.6501 853
110.6706 853
110.6912 778
110.7117 877
110.7323 813
110.7528 884
110.7733 760
110.7939 750
110.8144 791
110.8350 842
110.8555 849
110.8761 826
110.8966 834
110.9172 787
110.9377 787
110.9583 791
110.9788 778
110.9994 791
111.0199 781
111.0405 784
111.0610 749
111.0816 772
111.1021 785
111.1227 785
111.1432 804
111.1638 815
111.1843 791
111.2049 785
111.2254 792
111.2460 790
111.2665 783
111.2870 751
111.3076 780
111.3281 736
111.3487 803
111.3692 773
111.3898 802
111.4103 776
111.4309 774
111.4514 749
111.4720 765
111.4925 799
111.5131 756
111.5336 798
111.5542 773
111.5747 767
111.5953 743
111.6158 755
111.6364 750
111.6569 720
111.6775 803
111.6980 758
111.7185 804
111.7391 748
111.7596 788
111.7802 810
111.8007 735
111.8213 720
111.8418 793
111.8624 738
111.8829 737
111.9035 682
111.9240 728
111.9446 764
111.9651 721
111.9857 717
112.0062 709
112.0268 769
112.0473 673
112.0679 706
112.0884 649
112.1090 662
112.1295 702
112.1501 644
112.1706 677
112.1912 673
112.2117 639
112.2322 623
112.2528 643
112.2733 687
112.2939 670
112.3144 616
112.3350 628
112.3555 613
112.3761 655
112.3966 584
112.4172 563
112.4377 623
112.4583 604
112.4788 629
112.4994 615
112.5199 579
112.5405 671
112.5610 618
112.5816 577
112.6021 564
112.6227 618
112.6432 558
112.6637 588
112.6843 571
112.7048 503
112.7254 521
112.7459 522
112.7665 507
112.7870 551
112.8076 512
112.8281 572
112.8487 500
112.8692 542
112.8898 525
112.9103 526
112.9309 511
112.9514 479
112.9720 498
112.9925 496
113.0131 488
113.0336 516
113.0542 478
113.0747 465
113.0952 457
113.1158 458
113.1363 493
113.1569 436
113.1774 453
113.1980 435
113.2185 428
113.2391 442
113.2596 441
113.2802 423
113.3007 440
113.3213 391
113.3418 419
113.3624 421
113.3829 429
113.4035 410
113.4240 423
113.4446 413
113.4651 371
113.4857 401
113.5062 406
113.5268 359
113.5473 376
113.5679 368
113.5884 372
113.6089 368
113.6295 341
113.6500 365
113.6706 330
113.6911 373
113.7117 320
113.7322 339
113.7528 327
113.7733 321
113.7939 335
113.8144 296
113.8350 310
113.8555 274
113.8761 324
113.8966 298
113.9172 288
113.9377 285
113.9583 298
113.9788 287
113.9994 260
114.0199 265
114.0405 259
114.0610 255
114.0815 231
114.1021 254
114.1226 272
114.1432 247
114.1637 234
114.1843 228
114.2048 228
114.2254 228
114.2459 205
114.2665 184
114.2870 205
114.3076 210
114.3281 209
114.3487 163
114.3692 180
114.3898 181
114.4103 187
114.4309 173
114.4514 178
114.4720 184
114.4925 165
114.5131 150
114.5336 152
114.5541 144
114.5747 139
114.5952 146
114.6158 132
114.6363 123
114.6569 138
114.6774 118
114.6980 118
114.7185 121
114.7391 120
114.7596 106
114.7802 87
114.8007 89
114.8213 83
114.8418 101
114.8624 79
114.8829 82
114.9035 68
114.9240 59
114.9446 49
114.9651 78
114.9857 53
115.0062 42
115.0267 34
115.0473 47
115.0678 31
115.0884 34
115.1089 26
115.1295 31
115.1500 44
115.1706 30
115.1911 32
115.2117 23
115.2322 28
115.2528 30
115.2733 33
115.2939 35
115.3144 24
115.3350 30
115.3555 33
115.3761 39
115.3966 30
115.4172 41
115.4377 27
115.4582 25
115.4788 31
115.4993 36
115.5199 33
115.5404 21
115.5610 31
115.5815 21
115.6021 18
115.6226 20
115.6432 30
115.6637 26
115.6843 21
115.7048 23
115.7254 11
115.7459 21
115.7665 18
115.7870 20
115.8076 25
115.8281 23
115.8487 21
115.8692 28
115.8898 20
115.9103 20
115.9309 14
115.9514 11
115.9719 16
115.9925 18
116.0130 18
116.0336 14
116.0541 13
116.0747 21
116.0952 16
116.1158 17
116.1363 20
116.1569 15
116.1774 14
116.1980 16
116.2185 11
116.2391 12
116.2596 13
116.2802 5
116.3007 9
116.3213 11
116.3418 9
116.3624 8
116.3829 9
116.4034 10
116.4240 3
116.4445 7
116.4651 12
116.4856 5
116.5062 10
116.5267 4
116.5473 5
116.5678 5
116.5884 3
116.6089 10
116.6295 2
116.6500 4
116.6706 3
116.6911 2
116.7117 1
116.7322 1
116.7528 2
116.7733 6
116.7939 3
116.8144 3
116.8349 1
116.8555 4
116.8760 1
116.8966 4
116.9171 2
116.9377 2
116.9582 2
116.9788 2
116.9993 0
117.0199 2
117.0404 4
117.0610 2
117.0815 0
117.1021 1
117.1226 2
117.1432 3
117.1637 1
117.1843 4
117.2048 3
117.2254 1
117.2459 4
117.2665 5
117.2870 2
117.3076 4
117.3281 2
117.3486 0
117.3692 6
117.3897 1
117.4103 3
117.4308 2
117.4514 3
117.4719 0
117.4925 1
117.5130 3
117.5336 1
117.5541 1
117.5747 3
117.5952 3
117.6158 2
117.6363 6
117.6569 2
117.6774 4
117.6980 2
117.7185 1
117.7391 8
117.7596 0
117.7801 3
117.8007 2
117.8212 4
117.8418 4
117.8623 2
117.8829 6
117.9034 3
117.9240 0
117.9445 6
117.9651 4
117.9856 0
118.0062 2
118.0267 3
118.0473 4
118.0678 2
118.0884 3
118.1089 4
118.1295 4
118.1500 4
118.1706 8
118.1911 5
118.2117 3
118.2322 4
118.2528 3
118.2733 2
118.2938 3
118.3144 2
118.3349 4
118.3555 4
118.3760 1
118.3966 0
118.4171 4
118.4377 1
118.4582 5
118.4788 5
118.4993 3
118.5199 5
118.5404 3
118.5610 5
118.5815 1
118.6021 4
118.6226 6
118.6432 1
118.6637 4
118.6843 2
118.7048 4
118.7254 1
118.7459 3
118.7664 3
118.7870 2
118.8075 6
118.8281 1
118.8486 3
118.8692 3
118.8897 2
118.9103 5
118.9308 3
118.9514 8
118.9719 1
118.9925 4
119.0130 5
119.0336 4
119.0541 4
119.0747 1
119.0952 7
119.1158 2
119.1363 9
119.1569 4
119.1774 7
119.1979 5
119.2185 9
119.2390 5
119.2596 10
119.2801 8
119.3007 7
119.3212 8
119.3418 6
119.3623 12
119.3829 9
119.4034 5
119.4240 8
119.4445 14
119.4651 14
119.4856 12
119.5062 12
119.5267 17
119.5473 16
119.5678 17
119.5884 17
119.6089 12
119.6295 18
119.6500 18
119.6706 14
119.6911 19
119.7116 14
119.7322 16
119.7527 24
119.7733 12
119.7938 26
119.8144 13
119.8349 15
119.8555 18
119.8760 17
119.8966 10
119.9171 18
119.9377 20
119.9582 21
119.9788 16
119.9993 25
