?
30.0     741
30.02054 726
30.04109 698
30.06164 723
30.08219 743
30.10273 762
30.12328 751
30.14383 724
30.16438 708
30.18493 785
30.20547 741
30.22602 772
30.24657 748
30.26712 738
30.28767 735
30.30821 738
30.32876 797
30.34931 768
30.36986 735
30.39040 726
30.41095 705
30.43150 718
30.45205 717
30.47259 728
30.49314 740
30.51369 749
30.53424 732
30.55479 716
30.57533 703
30.59588 767
30.61643 761
30.63698 714
30.65753 774
30.67807 700
30.69862 739
30.71917 746
30.73972 736
30.76026 785
30.78081 785
30.80136 741
30.82191 731
30.84246 752
30.86300 732
30.88355 759
30.90410 747
30.92465 758
30.94519 739
30.96574 773
30.98629 749
31.00684 726
31.02739 731
31.04793 805
31.06848 729
31.08903 782
31.10958 743
31.13012 722
31.15067 730
31.17122 699
31.19177 787
31.21232 770
31.23286 686
31.25341 768
31.27396 736
31.29451 744
31.31506 740
31.33560 789
31.35615 736
31.37670 771
31.39725 759
31.41779 732
31.43834 744
31.45889 749
31.47944 790
31.49998 724
31.52053 717
31.54108 750
31.56163 736
31.58218 758
31.60272 728
31.62327 727
31.64382 823
31.66437 753
31.68491 728
31.70546 745
31.72601 775
31.74656 762
31.76711 739
31.78765 696
31.80820 750
31.82875 754
31.84930 755
31.86985 697
31.89039 711
31.91094 760
31.93149 732
31.95204 743
31.97258 670
31.99313 762
32.01368 772
32.03423 758
32.05477 735
32.07532 757
32.09587 709
32.11642 736
32.13697 716
32.15752 710
32.17806 717
32.19861 733
32.21916 703
32.23971 779
32.26025 699
32.28080 759
32.30135 745
32.32190 773
32.34244 732
32.36299 773
32.38354 760
32.40409 809
32.42464 812
32.44518 784
32.46573 788
32.48628 746
32.50683 810
32.52737 763
32.54792 749
32.56847 748
32.58902 782
32.60957 777
32.63011 705
32.65066 743
32.67121 696
32.69176 730
32.71231 757
32.73285 766
32.75340 758
32.77395 735
32.79450 738
32.81504 737
32.83559 767
32.85614 788
32.87669 773
32.89724 713
32.91778 809
32.93833 744
32.95888 767
32.97943 715
32.99997 762
33.02052 776
33.04107 729
33.06162 745
33.08216 719
33.10271 743
33.12326 798
33.14381 782
33.16436 781
33.18491 723
33.20545 767
33.22600 796
33.24655 739
33.26710 749
33.28764 721
33.30819 734
33.32874 738
33.34929 727
33.36983 759
33.39038 775
33.41093 748
33.43148 791
33.45203 756
33.47258 789
33.49312 783
33.51367 744
33.53422 720
33.55476 744
33.57531 769
33.59586 730
33.61641 768
33.63695 748
33.65750 762
33.67805 758
33.69860 775
33.71915 758
33.7397  770
33.76024 740
33.78079 777
33.80134 737
33.82189 739
33.84243 728
33.86298 746
33.88353 749
33.90408 720
33.92462 704
33.94517 761
33.96572 755
33.98627 758
34.00682 774
34.02737 771
34.04791 694
34.06846 764
34.08901 759
34.10955 754
34.13010 714
34.15065 748
34.17120 754
34.19175 809
34.21229 719
34.23284 747
34.25339 788
34.27394 736
34.29449 738
34.31503 757
34.33558 753
34.35613 786
34.37668 723
34.39722 777
34.41777 767
34.43832 777
34.45887 739
34.47942 772
34.49996 773
34.52051 739
34.54106 802
34.56161 785
34.58216 737
34.60270 770
34.62325 711
34.64380 791
34.66435 724
34.68489 774
34.70544 714
34.72599 770
34.74654 718
34.76709 728
34.78763 769
34.80818 768
34.82873 776
34.84928 731
34.86982 801
34.89037 788
34.91092 771
34.93147 789
34.95201 793
34.97256 734
34.99311 763
35.01366 817
35.03421 769
35.05476 808
35.07530 702
35.09585 745
35.11640 764
35.13695 762
35.15749 772
35.17804 755
35.19859 734
35.21914 738
35.23968 758
35.26023 764
35.28078 770
35.30133 761
35.32188 792
35.34242 774
35.36297 760
35.38352 784
35.40407 747
35.42461 740
35.44516 713
35.46571 771
35.48626 750
35.50680 798
35.52735 771
35.54790 757
35.56845 769
35.58900 785
35.60955 793
35.63009 804
35.65064 773
35.67119 759
35.69174 759
35.71228 776
35.73283 798
35.75338 730
35.77393 747
35.79447 758
35.81502 793
35.83557 756
35.85612 785
35.87667 767
35.89721 803
35.91776 784
35.93831 744
35.95886 774
35.97940 753
35.99995 745
36.02050 800
36.04105 724
36.0616  776
36.08215 794
36.10269 795
36.12324 800
36.14379 775
36.16434 733
36.18488 802
36.20543 807
36.22598 804
36.24653 706
36.26707 729
36.28762 782
36.30817 758
36.32872 801
36.34927 729
36.36982 803
36.39036 733
36.41091 794
36.43146 741
36.45200 736
36.47255 736
36.49310 786
36.51365 741
36.53419 734
36.55474 713
36.57529 734
36.59584 750
36.61639 713
36.63694 777
36.65748 705
36.67803 794
36.69858 736
36.71913 801
36.73967 786
36.76022 791
36.78077 764
36.80132 771
36.82186 740
36.84241 746
36.86296 739
36.88351 793
36.90406 784
36.92461 743
36.94515 717
36.96570 779
36.98625 793
37.00680 744
37.02734 780
37.04789 756
37.06844 803
37.08898 723
37.10953 759
37.13008 752
37.15063 769
37.17118 771
37.19173 727
37.21227 700
37.23282 753
37.25337 746
37.27392 790
37.29446 790
37.31501 783
37.33556 764
37.35611 741
37.37665 760
37.39720 785
37.41775 757
37.43830 817
37.45885 751
37.47940 724
37.49994 730
37.52049 706
37.54104 743
37.56159 773
37.58213 717
37.60268 811
37.62323 750
37.64378 739
37.66433 772
37.68487 756
37.70542 739
37.72597 763
37.74652 773
37.76706 783
37.78761 776
37.80816 771
37.82871 794
37.84925 721
37.86980 719
37.89035 684
37.91090 724
37.93145 814
37.952   742
37.97254 799
37.99309 786
38.01364 769
38.03419 797
38.05473 734
38.07528 743
38.09583 821
38.11638 792
38.13692 754
38.15747 747
38.17802 778
38.19857 795
38.21912 766
38.23966 747
38.26021 769
38.28076 807
38.30131 754
38.32185 759
38.34240 723
38.36295 781
38.38350 708
38.40404 732
38.42459 738
38.44514 772
38.46569 737
38.48624 778
38.50679 745
38.52733 780
38.54788 728
38.56843 803
38.58898 791
38.60952 771
38.63007 772
38.65062 754
38.67117 764
38.69171 799
38.71226 793
38.73281 747
38.75336 797
38.77391 781
38.79445 766
38.81500 767
38.83555 751
38.85610 769
38.87664 719
38.89719 821
38.91774 745
38.93829 784
38.95883 721
38.97938 787
38.99993 733
39.02048 804
39.04103 765
39.06158 725
39.08212 773
39.10267 768
39.12322 763
39.14377 772
39.16431 759
39.18486 827
39.20541 808
39.22596 783
39.24651 748
39.26705 763
39.28760 786
39.30815 759
39.32870 772
39.34925 826
39.36979 760
39.39034 739
39.41089 805
39.43143 766
39.45198 757
39.47253 743
39.49308 738
39.51363 760
39.53418 753
39.55472 768
39.57527 776
39.59582 748
39.61637 761
39.63691 744
39.65746 773
39.67801 736
39.69856 754
39.71910 751
39.73965 800
39.76020 735
39.78075 737
39.8013  760
39.82185 803
39.84239 774
39.86294 755
39.88349 781
39.90404 734
39.92458 763
39.94513 711
39.96568 744
39.98622 766
40.00677 741
40.02732 832
40.04787 761
40.06842 776
40.08897 812
40.10951 769
40.13006 718
40.15061 795
40.17116 794
40.19170 754
40.21225 786
40.23280 713
40.25335 778
40.27389 820
40.29444 796
40.31499 786
40.33554 735
40.35609 768
40.37664 753
40.39718 763
40.41773 836
40.43828 805
40.45883 774
40.47937 756
40.49992 724
40.52047 824
40.54101 793
40.56156 782
40.58211 778
40.60266 783
40.62321 777
40.64376 749
40.66430 791
40.68485 769
40.70540 815
40.72595 777
40.74649 767
40.76704 826
40.78759 758
40.80814 783
40.82869 777
40.84923 744
40.86978 768
40.89033 732
40.91088 736
40.93143 746
40.95197 768
40.97252 772
40.99307 823
41.01362 774
41.03416 743
41.05471 785
41.07526 759
41.09581 769
41.11636 772
41.13690 817
41.15745 812
41.17800 739
41.19855 766
41.21909 811
41.23964 776
41.26019 770
41.28074 780
41.30128 791
41.32183 758
41.34238 842
41.36293 798
41.38348 800
41.40403 790
41.42457 772
41.44512 792
41.46567 745
41.48622 743
41.50676 776
41.52731 771
41.54786 745
41.56841 725
41.58895 839
41.60950 717
41.63005 738
41.65060 784
41.67115 818
41.69169 768
41.71224 728
41.73279 744
41.75334 727
41.77388 775
41.79443 770
41.81498 755
41.83553 761
41.85607 775
41.87662 786
41.89717 779
41.91772 764
41.93827 817
41.95882 776
41.97936 808
41.99991 767
42.02046 782
42.04101 807
42.06155 720
42.08210 825
42.10265 788
42.12320 764
42.14374 812
42.16429 755
42.18484 768
42.20539 759
42.22594 774
42.24649 782
42.26703 778
42.28758 776
42.30813 784
42.32867 794
42.34922 831
42.36977 791
42.39032 830
42.41087 765
42.43141 748
42.45196 725
42.47251 812
42.49306 779
42.51361 819
42.53415 767
42.55470 846
42.57525 773
42.59580 812
42.61634 859
42.63689 797
42.65744 783
42.67799 776
42.69854 825
42.71909 757
42.73963 768
42.76018 824
42.78073 767
42.80128 789
42.82182 809
42.84237 781
42.86292 793
42.88346 790
42.90401 760
42.92456 786
42.94511 820
42.96566 829
42.98621 787
43.00675 776
43.02730 813
43.04785 840
43.06840 806
43.08894 786
43.10949 871
43.13004 855
43.15059 853
43.17113 821
43.19168 851
43.21223 831
43.23278 874
43.25333 868
43.27388 862
43.29442 910
43.31497 888
43.33552 893
43.35607 899
43.37661 907
43.39716 995
43.41771 974
43.43826 951
43.45880 1026
43.47935 1068
43.49990 1221
43.52045 1250
43.541   1318
43.56154 1343
43.58209 1511
43.60264 1723
43.62319 1985
43.64373 2417
43.66428 2859
43.68483 3328
43.70538 3495
43.72592 3108
43.74647 2775
43.76702 2487
43.78757 2290
43.80812 2241
43.82867 2254
43.84921 1892
43.86976 1530
43.89031 1295
43.91086 1182
43.93140 1134
43.95195 1055
43.97250 1035
43.99305 985
44.01359 936
44.03414 920
44.05469 880
44.07524 842
44.09579 890
44.11633 834
44.13688 940
44.15743 878
44.17798 847
44.19852 879
44.21907 893
44.23962 880
44.26017 920
44.28072 870
44.30127 901
44.32181 821
44.34236 853
44.36291 957
44.38346 868
44.40400 906
44.42455 893
44.44510 896
44.46565 902
44.48619 909
44.50674 854
44.52729 867
44.54784 884
44.56839 834
44.58894 891
44.60948 857
44.63003 857
44.65058 861
44.67112 821
44.69167 893
44.71222 872
44.73277 831
44.75331 812
44.77386 860
44.79441 801
44.81496 809
44.83551 811
44.85606 834
44.87660 869
44.89715 822
44.91770 803
44.93825 788
44.95879 843
44.97934 816
44.99989 797
45.02044 807
45.04098 850
45.06153 857
45.08208 780
45.10263 786
45.12318 807
45.14373 804
45.16427 797
45.18482 817
45.20537 785
45.22591 813
45.24646 827
45.26701 699
45.28756 775
45.30810 802
45.32865 813
45.34920 808
45.36975 869
45.39030 838
45.41085 816
45.43139 818
45.45194 771
45.47249 859
45.49304 786
45.51358 779
45.53413 777
45.55468 796
45.57523 826
45.59577 725
45.61632 829
45.63687 787
45.65742 795
45.67797 813
45.69852 763
45.71906 789
45.73961 758
45.76016 784
45.78070 832
45.80125 788
45.82180 793
45.84235 766
45.8629  808
45.88345 778
45.90399 825
45.92454 814
45.94509 812
45.96564 782
45.98618 771
46.00673 820
46.02728 838
46.04783 788
46.06837 769
46.08892 753
46.10947 769
46.13002 747
46.15057 767
46.17112 771
46.19166 756
46.21221 792
46.23276 752
46.25331 778
46.27385 804
46.29440 770
46.31495 713
46.33550 760
46.35604 773
46.37659 777
46.39714 831
46.41769 750
46.43824 810
46.45878 789
46.47933 767
46.49988 827
46.52043 744
46.54097 809
46.56152 779
46.58207 763
46.60262 792
46.62316 789
46.64371 730
46.66426 783
46.68481 774
46.70536 799
46.72591 826
46.74645 755
46.76700 794
46.78755 812
46.80810 832
46.82864 808
46.84919 809
46.86974 777
46.89029 749
46.91083 802
46.93138 724
46.95193 785
46.97248 816
46.99303 824
47.01357 775
47.03412 700
47.05467 811
47.07522 801
47.09576 795
47.11631 810
47.13686 785
47.15741 781
47.17795 800
47.19850 810
47.21905 759
47.23960 784
47.26015 847
47.28070 744
47.30124 802
47.32179 788
47.34234 773
47.36289 790
47.38343 821
47.40398 764
47.42453 844
47.44508 776
47.46563 844
47.48617 770
47.50672 817
47.52727 743
47.54782 724
47.56836 790
47.58891 804
47.60946 745
47.63001 751
47.65055 751
47.67110 767
47.69165 761
47.71220 782
47.73275 783
47.7533  796
47.77384 800
47.79439 754
47.81494 755
47.83549 811
47.85603 793
47.87658 777
47.89713 809
47.91768 763
47.93822 763
47.95877 751
47.97932 792
47.99987 760
48.02042 795
48.04097 779
48.06151 760
48.08206 800
48.10261 835
48.12315 792
48.14370 786
48.16425 797
48.18480 767
48.20534 805
48.22589 698
48.24644 813
48.26699 822
48.28754 816
48.30809 749
48.32863 777
48.34918 826
48.36973 769
48.39028 761
48.41082 803
48.43137 760
48.45192 728
48.47247 769
48.49301 723
48.51356 765
48.53411 830
48.55466 836
48.57521 774
48.59576 761
48.61630 820
48.63685 787
48.65740 772
48.67795 747
48.69849 835
48.71904 756
48.73959 844
48.76013 776
48.78068 850
48.80123 773
48.82178 786
48.84233 816
48.86288 763
48.88342 821
48.90397 761
48.92452 762
48.94507 808
48.96561 737
48.98616 823
49.00671 802
49.02726 761
49.04781 807
49.06835 775
49.08890 793
49.10945 788
49.13000 750
49.15055 767
49.17109 836
49.19164 830
49.21219 786
49.23274 756
49.25328 808
49.27383 804
49.29438 766
49.31493 766
49.33548 795
49.35602 738
49.37657 780
49.39712 779
49.41767 785
49.43821 785
49.45876 744
49.47931 788
49.49986 796
49.52040 738
49.54095 795
49.56150 804
49.58205 776
49.6026  785
49.62315 799
49.64369 833
49.66424 739
49.68479 783
49.70534 736
49.72588 771
49.74643 818
49.76698 802
49.78753 797
49.80807 744
49.82862 846
49.84917 808
49.86972 769
49.89027 812
49.91081 758
49.93136 735
49.95191 852
49.97246 813
49.99300 770
50.01355 808
50.03410 777
50.05465 792
50.07519 777
50.09574 767
50.11629 809
50.13684 817
50.15739 778
50.17794 781
50.19848 842
50.21903 790
50.23958 796
50.26013 789
50.28067 785
50.30122 775
50.32177 780
50.34232 783
50.36286 776
50.38341 812
50.40396 805
50.42451 818
50.44506 819
50.46560 743
50.48615 763
50.50670 757
50.52725 782
50.54779 790
50.56834 846
50.58889 854
50.60944 842
50.62999 847
50.65053 825
50.67108 878
50.69163 874
50.71218 905
50.73273 921
50.75327 922
50.77382 895
50.79437 946
50.81492 956
50.83546 985
50.85601 1032
50.87656 971
50.89711 1050
50.91766 1050
50.93821 1032
50.95875 993
50.97930 939
50.99985 1057
51.02040 916
51.04094 928
51.06149 895
51.08204 866
51.10258 887
51.12313 877
51.14368 830
51.16423 800
51.18478 842
51.20533 817
51.22587 783
51.24642 833
51.26697 798
51.28752 775
51.30806 778
51.32861 781
51.34916 813
51.36971 825
51.39025 813
51.41080 797
51.43135 825
51.45190 752
51.47245 775
51.493   771
51.51354 803
51.53409 799
51.55464 772
51.57519 791
51.59573 758
51.61628 825
51.63683 784
51.65737 774
51.67792 746
51.69847 789
51.71902 772
51.73957 760
51.76012 798
51.78066 799
51.80121 796
51.82176 821
51.84231 777
51.86285 746
51.88340 826
51.90395 759
51.92450 813
51.94504 834
51.96559 828
51.98614 829
52.00669 796
52.02724 821
52.04779 759
52.06833 776
52.08888 824
52.10943 849
52.12998 766
52.15052 777
52.17107 786
52.19162 758
52.21217 809
52.23271 818
52.25326 773
52.27381 800
52.29436 816
52.31491 790
52.33545 801
52.35600 826
52.37655 838
52.39710 799
52.41764 773
52.43819 762
52.45874 806
52.47929 771
52.49984 779
52.52039 798
52.54093 770
52.56148 785
52.58203 827
52.60258 811
52.62312 764
52.64367 793
52.66422 799
52.68477 806
52.70531 785
52.72586 789
52.74641 789
52.76696 773
52.78751 834
52.80805 789
52.82860 747
52.84915 766
52.86970 799
52.89024 794
52.91079 840
52.93134 774
52.95189 753
52.97243 744
52.99298 757
53.01353 778
53.03408 787
53.05463 778
53.07518 804
53.09572 780
53.11627 818
53.13682 834
53.15737 783
53.17791 790
53.19846 815
53.21901 807
53.23956 752
53.26010 814
53.28065 783
53.30120 759
53.32175 763
53.3423  742
53.36285 797
53.38339 770
53.40394 765
53.42449 802
53.44503 797
53.46558 791
53.48613 775
53.50668 767
53.52722 787
53.54777 783
53.56832 760
53.58887 815
53.60942 791
53.62997 774
53.65051 749
53.67106 752
53.69161 825
53.71216 801
53.73270 802
53.75325 796
53.77380 750
53.79435 751
53.81489 779
53.83544 771
53.85599 779
53.87654 771
53.89709 815
53.91764 766
53.93818 744
53.95873 767
53.97928 795
53.99982 805
54.02037 791
54.04092 759
54.06147 793
54.08202 797
54.10257 770
54.12311 796
54.14366 824
54.16421 764
54.18476 754
54.20530 797
54.22585 736
54.24640 717
54.26695 744
54.28749 763
54.30804 803
54.32859 777
54.34914 800
54.36969 786
54.39024 779
54.41078 803
54.43133 787
54.45188 783
54.47243 781
54.49297 785
54.51352 758
54.53407 750
54.55461 771
54.57516 765
54.59571 803
54.61626 819
54.63681 778
54.65736 810
54.67790 779
54.69845 795
54.71900 767
54.73955 840
54.76009 745
54.78064 794
54.80119 812
54.82174 763
54.84228 780
54.86283 789
54.88338 769
54.90393 789
54.92448 801
54.94503 751
54.96557 709
54.98612 801
55.00667 778
55.02722 780
55.04776 788
55.06831 777
55.08886 810
55.10941 752
55.12995 790
55.15050 783
55.17105 773
55.19160 745
55.21215 808
55.23269 847
55.25324 782
55.27379 832
55.29434 840
55.31488 782
55.33543 822
55.35598 785
55.37653 784
55.39707 803
55.41762 780
55.43817 782
55.45872 805
55.47927 801
55.49982 775
55.52036 807
55.54091 750
55.56146 745
55.58201 804
55.60255 771
55.62310 829
55.64365 797
55.66420 788
55.68475 803
55.70529 802
55.72584 806
55.74639 797
55.76694 766
55.78748 785
55.80803 849
55.82858 832
55.84913 794
55.86967 782
55.89022 821
55.91077 774
55.93132 758
55.95187 799
55.97242 797
55.99296 790
56.01351 809
56.03406 734
56.05461 769
56.07515 785
56.09570 807
56.11625 804
56.13680 805
56.15734 800
56.17789 834
56.19844 836
56.21899 787
56.23954 814
56.26009 766
56.28063 776
56.30118 831
56.32173 859
56.34227 789
56.36282 770
56.38337 810
56.40392 793
56.42446 767
56.44501 748
56.46556 796
56.48611 842
56.50666 737
56.52721 770
56.54775 785
56.56830 766
56.58885 806
56.60940 826
56.62994 836
56.65049 801
56.67104 792
56.69159 758
56.71213 780
56.73268 778
56.75323 787
56.77378 818
56.79433 766
56.81488 832
56.83542 775
56.85597 827
56.87652 771
56.89706 774
56.91761 839
56.93816 762
56.95871 786
56.97925 748
56.99980 846
57.02035 843
57.04090 794
57.06145 767
57.08200 781
57.10254 763
57.12309 769
57.14364 801
57.16419 779
57.18473 796
57.20528 784
57.22583 736
57.24638 837
57.26693 787
57.28747 813
57.30802 770
57.32857 776
57.34912 823
57.36967 775
57.39021 749
57.41076 771
57.43131 781
57.45186 824
57.47240 801
57.49295 771
57.51350 796
57.53405 795
57.5546  828
57.57514 777
57.59569 789
57.61624 791
57.63679 728
57.65733 756
57.67788 761
57.69843 756
57.71898 766
57.73952 762
57.76007 773
57.78062 776
57.80117 794
57.82172 820
57.84227 780
57.86281 774
57.88336 801
57.90391 796
57.92446 779
57.94500 823
57.96555 836
57.98610 772
58.00665 737
58.02719 806
58.04774 782
58.06829 774
58.08884 770
58.10939 727
58.12993 838
58.15048 776
58.17103 760
58.19158 754
58.21212 769
58.23267 822
58.25322 796
58.27377 793
58.29431 809
58.31486 772
58.33541 787
58.35596 753
58.37651 803
58.39706 820
58.41760 769
58.43815 790
58.45870 794
58.47925 777
58.49979 773
58.52034 780
58.54089 782
58.56144 770
58.58198 760
58.60253 815
58.62308 776
58.64363 781
58.66418 776
58.68472 772
58.70527 792
58.72582 775
58.74637 763
58.76691 794
58.78746 773
58.80801 777
58.82856 779
58.84911 789
58.86965 807
58.89020 776
58.91075 813
58.93130 777
58.95185 797
58.97239 776
58.99294 803
59.01349 770
59.03404 744
59.05458 783
59.07513 793
59.09568 782
59.11623 806
59.13678 781
59.15733 772
59.17787 766
59.19842 784
59.21897 760
59.23951 833
59.26006 753
59.28061 763
59.30116 772
59.32170 757
59.34225 837
59.36280 758
59.38335 783
59.4039  782
59.42445 779
59.44499 772
59.46554 808
59.48609 792
59.50664 723
59.52718 833
59.54773 783
59.56828 798
59.58883 805
59.60937 834
59.62992 777
59.65047 752
59.67102 789
59.69157 793
59.71212 812
59.73266 813
59.75321 773
59.77376 718
59.79431 763
59.81485 762
59.83540 778
59.85595 754
59.87649 790
59.89704 753
59.91759 735
59.93814 780
59.95869 815
59.97924 787
59.99978 759
60.02033 812
60.04088 783
60.06143 827
60.08197 785
60.10252 790
60.12307 780
60.14362 779
60.16416 751
60.18471 812
60.20526 798
60.22581 776
60.24636 781
60.26691 781
60.28745 795
60.30800 797
60.32855 832
60.34910 817
60.36964 803
60.39019 759
60.41074 765
60.43129 781
60.45183 813
60.47238 762
60.49293 782
60.51348 784
60.53403 758
60.55457 771
60.57512 756
60.59567 807
60.61622 784
60.63676 773
60.65731 791
60.67786 758
60.69841 761
60.71896 768
60.73951 792
60.76005 771
60.78060 785
60.80115 727
60.82170 796
60.84224 830
60.86279 783
60.88334 786
60.90389 803
60.92443 742
60.94498 867
60.96553 790
60.98608 794
61.00663 812
61.02717 801
61.04772 783
61.06827 764
61.08882 798
61.10936 751
61.12991 836
61.15046 820
61.17101 794
61.19155 758
61.21210 803
61.23265 754
61.25320 805
61.27375 790
61.2943  803
61.31484 821
61.33539 810
61.35594 826
61.37649 789
61.39703 809
61.41758 811
61.43813 795
61.45868 785
61.47922 752
61.49977 781
61.52032 823
61.54087 827
61.56142 797
61.58196 791
61.60251 838
61.62306 842
61.64361 788
61.66415 763
61.68470 817
61.70525 754
61.72580 811
61.74634 806
61.76689 820
61.78744 790
61.80799 768
61.82854 792
61.84909 788
61.86963 858
61.89018 757
61.91073 798
61.93128 820
61.95182 758
61.97237 719
61.99292 821
62.01347 813
62.03401 769
62.05456 829
62.07511 784
62.09566 782
62.11621 742
62.13676 782
62.15730 785
62.17785 816
62.19840 797
62.21894 768
62.23949 757
62.26004 740
62.28059 754
62.30114 749
62.32169 789
62.34223 784
62.36278 763
62.38333 784
62.40388 790
62.42442 755
62.44497 780
62.46552 770
62.48607 784
62.50661 740
62.52716 815
62.54771 777
62.56826 770
62.58881 797
62.60936 779
62.62990 793
62.65045 751
62.67100 794
62.69155 778
62.71209 805
62.73264 754
62.75319 774
62.77373 762
62.79428 798
62.81483 799
62.83538 772
62.85593 774
62.87648 761
62.89702 779
62.91757 796
62.93812 762
62.95867 773
62.97921 768
62.99976 778
63.02031 805
63.04086 759
63.06140 781
63.08195 779
63.10250 829
63.12305 797
63.1436  796
63.16415 799
63.18469 813
63.20524 814
63.22579 745
63.24634 768
63.26688 842
63.28743 745
63.30798 821
63.32852 774
63.34907 799
63.36962 752
63.39017 788
63.41072 798
63.43127 796
63.45181 769
63.47236 805
63.49291 833
63.51346 803
63.53400 749
63.55455 787
63.57510 773
63.59565 859
63.61619 795
63.63674 821
63.65729 794
63.67784 797
63.69839 814
63.71894 758
63.73948 745
63.76003 794
63.78058 789
63.80113 773
63.82167 781
63.84222 807
63.86277 722
63.88332 803
63.90387 824
63.92441 788
63.94496 769
63.96551 731
63.98606 800
64.00660 790
64.02715 751
64.04770 820
64.06825 842
64.08879 731
64.10934 797
64.12989 738
64.15044 791
64.17099 757
64.19153 877
64.21209 799
64.23263 796
64.25318 787
64.27372 807
64.29428 836
64.31482 820
64.33537 782
64.35591 761
64.37647 762
64.39701 797
64.41756 763
64.43811 847
64.45866 786
64.47921 753
64.49975 813
64.52030 788
64.54084 795
64.56140 820
64.58194 791
64.60249 807
64.62303 782
64.64359 793
64.66413 762
64.68468 803
64.70523 781
64.72578 832
64.74633 787
64.76687 823
64.78742 750
64.80797 834
64.82852 795
64.84906 772
64.86961 763
64.89016 824
64.91071 813
64.93125 804
64.95180 810
64.97235 865
64.99290 788
65.01345 771
65.03399 766
65.05455 797
65.07509 757
65.09564 856
65.11618 774
65.13673 836
65.15728 864
65.17783 734
65.19838 777
65.21892 779
65.23947 764
65.26002 784
65.28057 839
65.30111 769
65.32167 823
65.34221 824
65.36276 767
65.38330 808
65.40386 776
65.42440 812
65.44495 778
65.4655  760
65.48605 747
65.50659 784
65.52714 776
65.54769 755
65.56824 818
65.58879 741
65.60933 847
65.62988 782
65.65043 783
65.67098 728
65.69152 817
65.71207 775
65.73262 810
65.75317 795
65.77372 766
65.79426 810
65.81481 759
65.83536 778
65.85591 739
65.87645 796
65.89700 789
65.91755 809
65.93810 776
65.95864 815
65.97919 818
65.99974 808
66.02029 772
66.04084 809
66.06138 768
66.08194 782
66.10248 806
66.12303 832
66.14357 790
66.16413 838
66.18467 847
66.20522 789
66.22576 767
66.24631 784
66.26686 794
66.28741 823
66.30796 751
66.32850 760
66.34906 796
66.36960 752
66.39015 799
66.41069 809
66.43125 847
66.45179 782
66.47234 802
66.49288 796
66.51344 771
66.53398 767
66.55453 774
66.57508 762
66.59563 776
66.61618 828
66.63672 849
66.65727 822
66.67782 795
66.69837 812
66.71891 833
66.73946 818
66.76001 817
66.78056 793
66.80110 765
66.82165 839
66.84220 765
66.86275 828
66.88330 808
66.90384 798
66.92439 761
66.94494 763
66.96549 792
66.98603 792
67.00658 817
67.02713 778
67.04768 761
67.06823 775
67.08877 739
67.10932 806
67.12987 741
67.15042 779
67.17096 796
67.19152 762
67.21206 805
67.23261 753
67.25315 753
67.27371 838
67.29425 815
67.31480 861
67.33535 867
67.35590 789
67.37645 823
67.39699 816
67.41754 799
67.43808 763
67.45864 803
67.47918 751
67.49973 800
67.52027 802
67.54083 773
67.56137 758
67.58192 816
67.60247 735
67.62302 749
67.64357 829
67.66411 799
67.68466 746
67.70521 811
67.72576 760
67.74630 769
67.76685 771
67.78740 802
67.80795 807
67.82849 786
67.84904 842
67.86959 754
67.89014 801
67.91069 800
67.93123 754
67.95179 817
67.97233 766
67.99288 759
68.01342 766
68.03397 794
68.05452 803
68.07507 758
68.09561 731
68.11616 806
68.13671 797
68.15726 768
68.17781 707
68.19835 806
68.21891 754
68.23945 814
68.26000 835
68.28054 798
68.30110 811
68.32164 800
68.34219 780
68.36274 796
68.38329 850
68.40383 740
68.42438 809
68.44493 832
68.46548 772
68.48603 759
68.50657 802
68.52712 805
68.54767 803
68.56822 775
68.58876 783
68.60931 810
68.62986 754
68.65041 811
68.67095 819
68.69150 793
68.71205 776
68.73260 789
68.75315 807
68.77369 794
68.79424 811
68.81479 773
68.83534 793
68.85588 847
68.87643 804
68.89698 847
68.91753 790
68.93808 792
68.95862 829
68.97917 771
68.99972 760
69.02027 766
69.04081 778
69.06137 755
69.08191 758
69.10246 841
69.12300 782
69.14356 751
69.16410 780
69.18465 780
69.2052  792
69.22574 813
69.2463  761
69.26684 838
69.28739 739
69.30793 818
69.32849 823
69.34903 809
69.36958 829
69.39012 750
69.41068 780
69.43122 807
69.45177 740
69.47232 801
69.49287 759
69.51342 796
69.53396 812
69.55451 735
69.57506 793
69.59561 789
69.61615 786
69.63670 789
69.65725 807
69.67780 815
69.69834 754
69.71889 807
69.73944 833
69.75999 774
69.78054 798
69.80108 804
69.82163 804
69.84218 828
69.86273 784
69.88327 763
69.90382 858
69.92437 781
69.94492 775
69.96546 848
69.98601 815
70.00656 781
70.02711 795
70.04766 834
70.06820 778
70.08876 801
70.10930 821
70.12985 815
70.15039 826
70.17095 801
70.19149 811
70.21204 799
70.23259 737
70.25314 741
70.27368 743
70.29423 788
70.31478 783
70.33532 789
70.35588 779
70.37642 796
70.39697 783
70.41751 763
70.43807 812
70.45861 740
70.47916 799
70.49971 780
70.52026 775
70.54081 814
70.56135 787
70.58190 815
70.60245 804
70.62300 804
70.64354 770
70.66409 718
70.68464 776
70.70519 815
70.72573 758
70.74628 799
70.76683 805
70.78738 833
70.80793 843
70.82847 832
70.84903 797
70.86957 837
70.89012 756
70.91066 783
70.93121 807
70.95176 799
70.97231 738
70.99285 786
71.01340 763
71.03395 824
71.05450 809
71.07505 782
71.09559 806
71.11615 727
71.13669 810
71.15724 778
71.17778 792
71.19834 812
71.21888 805
71.23943 745
71.25997 791
71.28053 839
71.30107 793
71.32162 760
71.34217 749
71.36272 869
71.38327 835
71.40381 811
71.42436 838
71.44491 788
71.46546 789
71.48600 783
71.50655 805
71.5271  793
71.54765 817
71.56819 777
71.58874 765
71.60929 834
71.62984 806
71.65039 810
71.67093 786
71.69148 807
71.71203 805
71.73258 736
71.75312 785
71.77367 801
71.79422 786
71.81477 792
71.83532 791
71.85586 853
71.87641 789
71.89696 732
71.91751 777
71.93805 779
71.95861 759
71.97915 814
71.99970 803
72.02024 789
72.04080 785
72.06134 781
72.08189 781
72.10244 804
72.12298 817
72.14353 780
72.16408 810
72.18463 790
72.20517 727
72.22573 766
72.24627 853
72.26682 804
72.28736 807
72.30792 807
72.32846 793
72.34901 790
72.36956 803
72.39011 795
72.41066 751
72.43120 809
72.45175 762
72.47230 796
72.49285 764
72.51339 835
72.53394 769
72.55449 841
72.57504 786
72.59558 803
72.61613 825
72.63668 772
72.65723 802
72.67778 815
72.69832 772
72.71887 833
72.73942 789
72.75997 782
72.78051 821
72.80106 771
72.82161 819
72.84216 787
72.86270 780
72.88325 809
72.90380 759
72.92435 803
72.94490 790
72.96544 783
72.986   799
73.00654 828
73.02709 744
73.04763 792
73.06819 752
73.08873 824
73.10928 809
73.12982 805
73.15038 778
73.17092 828
73.19147 820
73.21202 808
73.23257 863
73.25312 812
73.27366 794
73.29421 802
73.31475 786
73.33531 782
73.35585 773
73.37640 831
73.39695 761
73.41750 826
73.43804 787
73.45859 804
73.47914 827
73.49969 756
73.52024 808
73.54078 792
73.56133 829
73.58188 799
73.60243 809
73.62297 813
73.64352 825
73.66407 874
73.68462 857
73.70517 794
73.72571 796
73.74626 782
73.76681 773
73.78736 839
73.80790 826
73.82846 798
73.84900 826
73.86955 805
73.89009 816
73.91064 817
73.93119 829
73.95174 794
73.97229 812
73.99283 770
74.01339 845
74.03393 769
74.05448 783
74.07502 788
74.09558 825
74.11612 795
74.13667 796
74.15721 780
74.17777 787
74.19831 746
74.21886 798
74.23941 818
74.25996 809
74.28051 822
74.30105 806
74.32160 846
74.34215 844
74.36270 849
74.38324 853
74.40379 852
74.42433 841
74.44489 827
74.46543 863
74.48598 879
74.50653 873
74.52708 870
74.54763 950
74.56817 877
74.58872 959
74.60927 960
74.62982 945
74.65036 999
74.67091 1060
74.69146 1015
74.71201 1085
74.73255 1115
74.75310 1114
74.77365 1076
74.79420 1098
74.81475 995
74.83529 1040
74.85585 996
74.87639 1013
74.89694 925
74.91748 904
74.93804 907
74.95858 994
74.97913 945
74.99968 944
75.02022 957
75.04077 1012
75.06132 866
75.08187 805
75.10241 820
75.12297 880
75.14351 825
75.16406 789
75.18460 787
75.20516 839
75.22570 796
75.24625 837
75.2668  793
75.28735 856
75.30789 793
75.32844 768
75.34899 819
75.36954 807
75.39009 865
75.41063 775
75.43118 831
75.45173 802
75.47228 760
75.49282 807
75.51337 778
75.53392 760
75.55447 796
75.57502 783
75.59556 837
75.61611 806
75.63666 793
75.65721 796
75.67775 810
75.69830 792
75.71885 746
75.73940 819
75.75994 781
75.78049 803
75.80104 813
75.82159 766
75.84214 764
75.86268 786
75.88324 839
75.90378 820
75.92433 831
75.94487 804
75.96543 779
75.98597 798
76.00652 786
76.02706 777
76.04762 854
76.06816 763
76.08871 804
76.10926 793
76.12981 885
76.15036 836
76.17090 785
76.19145 812
76.21199 817
76.23255 812
76.25309 820
76.27364 782
76.29418 747
76.31474 800
76.33528 782
76.35583 794
76.37638 822
76.39693 799
76.41748 828
76.43802 781
76.45857 731
76.47912 828
76.49967 784
76.52021 801
76.54076 790
76.56131 788
76.58186 850
76.60240 795
76.62295 802
76.64350 800
76.66405 804
76.68460 770
76.70514 783
76.7257  820
76.74624 784
76.76679 757
76.78733 780
76.80788 793
76.82843 787
76.84898 874
76.86953 767
76.89007 786
76.91062 799
76.93117 783
76.95172 790
76.97226 832
76.99282 801
77.01336 801
77.03391 829
77.05445 805
77.07501 852
77.09555 823
77.11610 787
77.13665 794
77.15720 803
77.17775 800
77.19829 791
77.21884 746
77.23939 800
77.25994 800
77.28048 808
77.30103 808
77.32158 747
77.34213 796
77.36267 789
77.38322 763
77.40377 825
77.42432 836
77.44487 820
77.46541 830
77.48596 814
77.50651 772
77.52706 836
77.54760 805
77.56815 792
77.58870 779
77.60925 786
77.62979 788
77.65034 764
77.67089 812
77.69144 851
77.71199 836
77.73253 848
77.75309 754
77.77363 826
77.79418 761
77.81472 772
77.83528 839
77.85582 730
77.87637 785
77.89691 820
77.91747 806
77.93801 803
77.95856 825
77.97911 784
77.99965 786
78.02021 786
78.04075 791
78.06130 825
78.08184 760
78.10240 800
78.12294 771
78.14349 821
78.16404 768
78.18459 854
78.20513 783
78.22568 782
78.24623 822
78.26678 808
78.28733 755
78.30787 763
78.32842 733
78.34897 806
78.36952 821
78.39006 791
78.41061 791
78.43116 821
78.45171 777
78.47226 771
78.49280 789
78.51335 802
78.53390 787
78.55445 789
78.57499 828
78.59554 856
78.61609 811
78.63664 861
78.65718 794
78.67773 764
78.69828 816
78.71883 835
78.73938 801
78.75992 812
78.78047 775
78.80102 833
78.82157 815
78.84211 805
78.86267 803
78.88321 808
78.90376 795
78.92430 757
78.94486 812
78.96540 843
78.98595 850
79.0065  809
79.02705 821
79.0476  823
79.06814 803
79.08869 810
79.10923 805
79.12979 807
79.15033 750
79.17088 756
79.19142 814
79.21198 788
79.23252 756
79.25307 781
79.27362 798
79.29417 784
79.31472 823
79.33526 792
79.35581 797
79.37636 861
79.39691 821
79.41745 797
79.43800 808
79.45855 840
79.47910 788
79.49964 840
79.52019 835
79.54074 821
79.56129 855
79.58184 828
79.60238 786
79.62294 808
79.64348 843
79.66403 804
79.68457 801
79.70512 824
79.72567 781
79.74622 851
79.76676 824
79.78731 822
79.80786 786
79.82841 825
79.84896 771
79.86950 862
79.89006 760
79.91060 776
79.93115 794
79.95169 802
79.97225 800
79.99279 802
80.01334 802
80.03389 751
80.05444 806
80.07498 776
80.09553 818
80.11608 769
80.13663 816
80.15718 826
80.17772 788
80.19827 797
80.21882 783
80.23937 818
80.25991 783
80.28046 819
80.30101 808
80.32156 797
80.34211 791
80.36265 812
80.38320 772
80.40375 793
80.42430 736
80.44484 770
80.46539 724
80.48594 809
80.50649 806
80.52703 779
80.54758 794
80.56813 806
80.58868 781
80.60923 808
80.62977 790
80.65033 822
80.67087 749
80.69142 861
80.71196 807
80.73252 807
80.75306 819
80.77361 801
80.79415 801
80.81471 800
80.83525 808
80.85580 782
80.87635 842
80.89689 805
80.91745 776
80.93799 812
80.95854 769
80.97908 808
80.99964 793
81.02018 770
81.04073 880
81.06127 798
81.08183 759
81.10237 822
81.12292 813
81.14347 751
81.16402 777
81.18457 770
81.20511 837
81.22566 844
81.24621 810
81.26676 818
81.28730 830
81.30785 761
81.32840 821
81.34895 825
81.36949 757
81.39004 785
81.41059 780
81.43114 871
81.45169 827
81.47223 816
81.49278 778
81.51333 807
81.53388 841
81.55442 811
81.57497 812
81.59552 827
81.61607 787
81.63662 794
81.65716 791
81.67771 806
81.69826 822
81.71881 864
81.73935 851
81.75991 833
81.78045 843
81.80100 823
81.82154 812
81.84210 760
81.86264 813
81.88319 772
81.90374 786
81.92429 803
81.94483 801
81.96538 812
81.98593 806
82.00648 758
82.02703 794
82.04757 837
82.06812 879
82.08866 813
82.10922 794
82.12976 815
82.15031 771
82.17086 811
82.19141 840
82.21196 777
82.23250 827
82.25305 835
82.27360 806
82.29415 806
82.31469 752
82.33524 834
82.35579 853
82.37634 830
82.39688 817
82.41743 814
82.43798 827
82.45853 764
82.47908 803
82.49962 821
82.52018 830
82.54072 822
82.56127 773
82.58181 767
82.60237 805
82.62291 784
82.64346 818
82.66400 801
82.68455 818
82.70510 860
82.72565 846
82.74620 784
82.76674 790
82.7873  763
82.80784 775
82.82839 796
82.84893 778
82.86949 833
82.89003 789
82.91058 832
82.93112 853
82.95168 824
82.97222 822
82.99277 822
83.01332 820
83.03387 812
83.05442 824
83.07496 744
83.09551 809
83.11606 777
83.13661 775
83.15715 783
83.17770 779
83.19825 797
83.21880 810
83.23934 793
83.25989 818
83.28044 800
83.30099 803
83.32154 791
83.34208 838
83.36263 791
83.38318 876
83.40373 832
83.42427 752
83.44482 820
83.46537 780
83.48592 798
83.50647 762
83.52701 797
83.54756 746
83.56811 737
83.58866 828
83.60920 773
83.62976 831
83.65030 860
83.67085 798
83.69139 765
83.71195 829
83.73249 782
83.75304 827
83.77359 791
83.79413 780
83.81469 758
83.83523 811
83.85578 820
83.87632 841
83.89688 756
83.91742 804
83.93797 821
83.95851 813
83.97907 837
83.99961 786
84.02016 776
84.04071 798
84.06126 780
84.08181 789
84.10235 800
84.12290 775
84.14345 810
84.16400 785
84.18454 780
84.20509 806
84.22564 782
84.24619 860
84.26673 805
84.28728 768
84.30783 764
84.32838 786
84.34893 770
84.36947 763
84.39002 876
84.41057 738
84.43112 817
84.45166 831
84.47221 757
84.49276 789
84.51331 848
84.53385 724
84.55440 819
84.57495 789
84.59550 837
84.61605 736
84.63659 703
84.65715 808
84.67769 822
84.69824 859
84.71878 819
84.73934 794
84.75988 807
84.78043 822
84.80098 854
84.82153 841
84.84207 783
84.86262 760
84.88317 810
84.90372 810
84.92427 737
84.94481 790
84.96536 787
84.98590 789
85.00646 794
85.02700 815
85.04755 796
85.0681  817
85.08865 803
85.1092  820
85.12974 787
85.15029 789
85.17084 719
85.19139 785
85.21193 819
85.23248 806
85.25303 830
85.27358 820
85.29412 751
85.31467 794
85.33522 832
85.35577 873
85.37632 800
85.39686 749
85.41741 835
85.43796 766
85.45851 803
85.47905 847
85.49961 775
85.52015 856
85.54070 859
85.56124 794
85.58179 773
85.60234 808
85.62289 789
85.64344 803
85.66398 797
85.68454 833
85.70508 773
85.72563 760
85.74617 828
85.76673 806
85.78727 801
85.80782 834
85.82836 826
85.84892 791
85.86946 789
85.89001 775
85.91056 831
85.93111 844
85.95166 831
85.97220 730
85.99275 789
86.01330 821
86.03385 831
86.05439 804
86.07494 822
86.09549 807
86.11604 777
86.13658 862
86.15713 772
86.17768 802
86.19823 808
86.21878 773
86.23932 771
86.25987 786
86.28042 787
86.30097 821
86.32151 831
86.34206 847
86.36261 813
86.38316 805
86.40370 794
86.42425 796
86.44480 795
86.46535 779
86.48590 811
86.50644 766
86.527   827
86.54754 839
86.56809 801
86.58863 800
86.60919 781
86.62973 843
86.65028 791
86.67083 809
86.69138 773
86.71192 770
86.73247 802
86.75302 817
86.77356 838
86.79412 743
86.81466 770
86.83521 840
86.85575 772
86.87631 763
86.89685 810
86.91740 793
86.93795 739
86.95850 798
86.97905 776
86.99959 808
87.02014 796
87.04069 765
87.06124 775
87.08178 772
87.10233 779
87.12288 799
87.14343 808
87.16397 815
87.18452 805
87.20507 791
87.22562 805
87.24617 833
87.26671 847
87.28726 816
87.30781 791
87.32836 836
87.34890 741
87.36945 771
87.39000 810
87.41055 778
87.43109 819
87.45164 805
87.47219 829
87.49274 793
87.51329 834
87.53383 854
87.55439 822
87.57493 832
87.59548 825
87.61602 799
87.63658 816
87.65712 809
87.67767 837
87.69821 846
87.71877 776
87.73931 787
87.75986 816
87.78041 790
87.80096 795
87.82151 814
87.84205 820
87.86260 748
87.88314 773
87.90370 807
87.92424 751
87.94479 850
87.96534 795
87.98589 833
88.00643 765
88.02698 843
88.04753 785
88.06808 784
88.08863 769
88.10917 792
88.12972 773
88.15027 811
88.17082 809
88.19136 755
88.21191 796
88.23246 841
88.25301 788
88.27356 822
88.29410 807
88.31465 791
88.33520 837
88.35575 783
88.37629 779
88.39685 822
88.41739 806
88.43794 779
88.45848 778
88.47903 837
88.49958 777
88.52013 799
88.54068 791
88.56122 780
88.58177 771
88.60232 822
88.62287 787
88.64341 848
88.66397 776
88.68451 809
88.70506 828
88.72560 817
88.74616 815
88.76670 824
88.78725 817
88.8078  830
88.82835 781
88.8489  774
88.86944 847
88.88999 787
88.91054 825
88.93109 810
88.95163 801
88.97218 766
88.99273 765
89.01328 830
89.03382 829
89.05437 810
89.07492 775
89.09547 805
89.11602 727
89.13656 774
89.15711 841
89.17766 805
89.19821 802
89.21875 808
89.23930 844
89.25985 822
89.28040 796
89.30094 859
89.32149 803
89.34204 817
89.36259 820
89.38314 854
89.40368 827
89.42424 823
89.44478 825
89.46533 800
89.48587 821
89.50643 830
89.52697 842
89.54752 788
89.56806 820
89.58862 765
89.60916 791
89.62971 778
89.65026 772
89.67080 814
89.69136 805
89.71190 819
89.73245 785
89.75299 806
89.77355 805
89.79409 821
89.81464 800
89.83519 795
89.85574 858
89.87628 832
89.89683 844
89.91738 829
89.93793 798
89.95848 825
89.97902 852
89.99957 881
90.02012 760
90.04067 883
90.06121 848
90.08176 875
90.10231 845
90.12286 848
90.14341 892
90.16395 810
90.18450 881
90.20505 836
90.22560 815
90.24614 829
90.26669 897
90.28724 897
90.30779 858
90.32833 872
90.34888 837
90.36943 907
90.38998 910
90.41053 828
90.43107 896
90.45163 915
90.47217 917
90.49272 954
90.51326 955
90.53382 941
90.55436 1057
90.57491 1009
90.59545 1092
90.61601 1078
90.63655 1070
90.65710 1125
90.67765 1148
90.69820 1166
90.71875 1227
90.73929 1244
90.75984 1219
90.78039 1212
90.80094 1243
90.82148 1162
90.84203 1172
90.86257 1189
90.88313 1112
90.90367 1084
90.92422 1059
90.94477 1087
90.96532 1072
90.98587 1022
91.00641 1060
91.02696 1007
91.04751 1000
91.06806 984
91.08860 938
91.10915 1000
91.12970 977
91.15025 943
91.17079 906
91.19134 927
91.21189 831
91.23244 891
91.25299 882
91.27353 836
91.29409 856
91.31463 845
91.33518 845
91.35572 789
91.37627 829
91.39682 814
91.41737 805
91.43792 828
91.45846 790
91.47901 799
91.49956 767
91.52011 823
91.54065 853
91.56121 853
91.58175 795
91.60230 840
91.62284 783
91.64340 805
91.66394 837
91.68449 858
91.70504 751
91.72559 852
91.74614 759
91.76668 805
91.78723 739
91.80778 787
91.82833 786
91.84887 786
91.86942 795
91.88997 811
91.91052 769
91.93106 807
91.95161 789
91.97216 874
91.99271 770
92.01326 800
92.03380 783
92.05435 801
92.07490 799
92.09545 822
92.11599 843
92.13654 834
92.15709 829
92.17764 839
92.19818 768
92.21873 792
92.23928 817
92.25983 827
92.28038 828
92.30092 783
92.32148 758
92.34202 799
92.36257 825
92.38311 852
92.40367 852
92.42421 786
92.44476 792
92.46530 858
92.48586 834
92.50640 769
92.52695 808
92.54750 820
92.56804 765
92.5886  808
92.60914 791
92.62969 841
92.65023 836
92.67079 833
92.69133 823
92.71188 774
92.73243 776
92.75298 789
92.77352 804
92.79407 807
92.81462 787
92.83517 857
92.85572 791
92.87626 843
92.89681 801
92.91736 830
92.93791 813
92.95845 792
92.97900 837
92.99955 831
93.02010 817
93.04064 839
93.06119 843
93.08174 801
93.10229 772
93.12284 794
93.14338 747
93.16393 804
93.18448 816
93.20503 764
93.22557 846
93.24612 795
93.26667 796
93.28722 838
93.30777 862
93.32831 803
93.34886 778
93.36941 815
93.38996 843
93.41050 783
93.43106 848
93.45160 803
93.47215 859
93.49269 886
93.51325 823
93.53379 829
93.55434 812
93.57489 810
93.59544 795
93.61599 847
93.63653 795
93.65708 854
93.67763 825
93.69818 778
93.71872 794
93.73927 721
93.75981 852
93.78037 843
93.80091 737
93.82146 866
93.84201 832
93.86256 830
93.88311 845
93.90365 797
93.92420 794
93.94475 829
93.96530 836
93.98584 806
94.00639 787
94.02694 774
94.04749 795
94.06803 801
94.08858 807
94.10913 776
94.12968 832
94.15023 834
94.17077 784
94.19133 822
94.21187 857
94.23242 801
94.25296 796
94.27352 814
94.29406 809
94.31461 828
94.33515 745
94.35570 824
94.37625 827
94.39680 773
94.41735 804
94.43789 842
94.45845 814
94.47899 794
94.49954 807
94.52008 848
94.54064 859
94.56118 831
94.58173 794
94.60228 821
94.62283 788
94.64337 807
94.66392 868
94.68447 803
94.70502 754
94.72557 796
94.74611 801
94.76666 778
94.78721 819
94.80776 839
94.82830 848
94.84885 838
94.86940 801
94.88995 815
94.9105  792
94.93104 775
94.95159 811
94.97214 827
94.99269 779
95.01323 840
95.03378 835
95.05433 798
95.07488 779
95.09542 816
95.11597 824
95.13652 822
95.15707 815
95.17762 812
95.19816 823
95.21871 840
95.23926 773
95.25981 824
95.28035 824
95.30091 860
95.32145 800
95.34200 796
95.36254 848
95.38310 797
95.40364 826
95.42419 831
95.44474 823
95.46528 816
95.48584 816
95.50638 842
95.52693 813
95.54747 818
95.56803 855
95.58857 798
95.60912 814
95.62966 785
95.65022 825
95.67076 808
95.69131 841
95.71186 808
95.73241 806
95.75296 848
95.77350 842
95.79405 793
95.81460 870
95.83515 798
95.85569 834
95.87624 904
95.89679 881
95.91734 899
95.93788 889
95.95843 881
95.97898 882
95.99953 929
96.02008 931
96.04062 887
96.06117 891
96.08172 858
96.10227 838
96.12281 854
96.14336 872
96.16391 860
96.18446 867
96.20500 837
96.22555 862
96.24610 856
96.26665 841
96.28720 898
96.30774 863
96.3283  822
96.34884 859
96.36939 873
96.38993 879
96.41049 805
96.43103 817
96.45158 830
96.47213 850
96.49268 812
96.51322 783
96.53377 808
96.55432 865
96.57487 793
96.59542 812
96.61596 782
96.63651 847
96.65705 781
96.67761 797
96.69815 825
96.71870 841
96.73925 788
96.75980 849
96.78035 840
96.80089 785
96.82144 778
96.84199 807
96.86254 812
96.88308 834
96.90363 778
96.92418 843
96.94473 766
96.96527 807
96.98582 825
97.00637 854
97.02692 818
97.04747 791
97.06801 831
97.08857 811
97.10911 810
97.12966 819
97.15020 817
97.17076 815
97.19130 789
97.21185 808
97.23239 789
97.25294 750
97.27349 774
97.29404 826
97.31459 785
97.33513 814
97.35569 807
97.37623 856
97.39678 815
97.41732 852
97.43788 841
97.45842 824
97.47897 846
97.49951 845
97.52007 873
97.54061 797
97.56116 773
97.58171 847
97.60226 846
97.62281 842
97.64335 761
97.66390 838
97.68445 757
97.70500 759
97.72554 832
97.74609 796
97.76664 785
97.78719 839
97.80773 793
97.82828 794
97.84883 812
97.86938 853
97.88993 767
97.91047 833
97.93102 829
97.95157 776
97.97212 814
97.99266 765
98.01321 819
98.03376 791
98.05431 808
98.07486 854
98.09540 849
98.11595 816
98.13650 799
98.15705 837
98.17759 789
98.19815 799
98.21869 795
98.23924 818
98.25978 780
98.28034 854
98.30088 781
98.32143 839
98.34198 835
98.36253 785
98.38308 764
98.40362 786
98.42417 795
98.44471 786
98.46527 784
98.48581 826
98.50636 873
98.52690 770
98.54746 781
98.56800 799
98.58855 822
98.6091  761
98.62965 751
98.6502  847
98.67074 775
98.69129 839
98.71184 826
98.73239 811
98.75293 853
98.77348 780
98.79403 807
98.81458 796
98.83512 785
98.85567 805
98.87622 795
98.89677 798
98.91732 789
98.93786 837
98.95842 824
98.97896 801
98.99951 776
99.02005 837
99.04060 784
99.06115 823
99.08170 749
99.10224 836
99.12279 807
99.14334 825
99.16389 778
99.18444 819
99.20498 802
99.22554 832
99.24608 775
99.26663 794
99.28717 793
99.30773 822
99.32827 850
99.34882 799
99.36937 793
99.38992 833
99.41046 808
99.43101 810
99.45156 831
99.47211 789
99.49266 841
99.51320 822
99.53375 853
99.55429 838
99.57485 811
99.59539 821
99.61594 818
99.63649 780
99.65704 779
99.67758 833
99.69813 832
99.71868 754
99.73923 795
99.75978 807
99.78032 817
99.80087 841
99.82142 794
99.84197 808
99.86251 895
99.88306 793
99.90361 804
99.92416 832
99.94471 823
99.96525 798
99.98580 866
100.0063 796
100.0269 854
100.0474 842
100.0680 820
100.0885 803
100.1090 824
100.1296 806
100.1501 763
100.1707 804
100.1912 814
100.2118 819
100.2323 817
100.2529 810
100.2734 811
100.2940 823
100.3145 827
100.3351 807
100.3556 770
100.3762 815
100.3967 777
100.4173 811
100.4378 818
100.4584 825
100.4789 767
100.4995 835
100.5200 795
100.5405 789
100.5611 816
100.5816 769
100.6022 857
100.6227 847
100.6433 821
100.6638 795
100.6844 778
100.7049 855
100.7255 771
100.7460 782
100.7666 834
100.7871 779
100.8077 799
100.8282 822
100.8488 789
100.8693 766
100.8899 819
100.9104 748
100.9310 771
100.9515 808
100.9720 838
100.9926 806
101.0131 789
101.0337 827
101.0542 789
101.0748 812
101.0953 801
101.1159 826
101.1364 797
101.1570 809
101.1775 759
101.1981 793
101.2186 863
101.2392 829
101.2597 783
101.2803 828
101.3008 817
101.3214 780
101.3419 786
101.3625 834
101.3830 821
101.4036 808
101.4241 791
101.4447 861
101.4652 797
101.4857 813
101.5063 852
101.5268 817
101.5474 851
101.5679 746
101.5885 807
101.6090 785
101.6296 833
101.6501 784
101.6707 823
101.6912 838
101.7118 797
101.7323 787
101.7529 784
101.7734 773
101.7940 819
101.8145 758
101.8351 775
101.8556 849
101.8762 792
101.8967 842
101.9172 840
101.9378 853
101.9583 799
101.9789 764
101.9994 762
102.0200 828
102.0405 809
102.0611 758
102.0816 840
102.1022 824
102.1227 839
102.1433 812
102.1638 796
102.1844 836
102.2049 822
102.2255 842
102.2460 843
102.2666 837
102.2871 771
102.3077 844
102.3282 816
102.3488 803
102.3693 799
102.3899 801
102.4104 815
102.4309 812
102.4515 855
102.4720 842
102.4926 797
102.5131 859
102.5337 767
102.5542 794
102.5748 805
102.5953 809
102.6159 821
102.6364 789
102.6570 801
102.6775 827
102.6981 821
102.7186 776
102.7392 818
102.7597 782
102.7803 833
102.8008 775
102.8214 803
102.8419 837
102.8624 772
102.8830 778
102.9035 811
102.9241 800
102.9446 848
102.9652 804
102.9857 766
103.0063 796
103.0268 862
103.0474 791
103.0679 732
103.0885 795
103.1090 804
103.1296 819
103.1501 823
103.1707 796
103.1912 775
103.2118 767
103.2323 835
103.2529 851
103.2734 785
103.2939 785
103.3145 802
103.3350 809
103.3556 814
103.3761 828
103.3967 787
103.4172 801
103.4378 779
103.4583 812
103.4789 787
103.4994 851
103.5200 765
103.5405 830
103.5611 826
103.5816 796
103.6022 809
103.6227 817
103.6433 807
103.6638 816
103.6844 820
103.7049 874
103.7255 815
103.7460 808
103.7666 779
103.7871 793
103.8076 778
103.8282 803
103.8487 848
103.8693 841
103.8898 816
103.9104 786
103.9309 766
103.9515 815
103.9720 785
103.9926 782
104.0131 815
104.0337 879
104.0542 783
104.0748 828
104.0953 797
104.1159 766
104.1364 812
104.1570 839
104.1775 794
104.1981 853
104.2186 869
104.2391 766
104.2597 878
104.2802 750
104.3008 804
104.3213 840
104.3419 851
104.3624 813
104.3830 804
104.4035 828
104.4241 794
104.4446 806
104.4652 798
104.4857 792
104.5063 802
104.5268 818
104.5474 863
104.5679 783
104.5885 776
104.6090 799
104.6296 812
104.6501 823
104.6707 817
104.6912 831
104.7118 822
104.7323 834
104.7528 806
104.7734 802
104.7939 795
104.8145 761
104.8350 818
104.8556 805
104.8761 832
104.8967 852
104.9172 829
104.9378 842
104.9583 833
104.9789 810
104.9994 758
105.0200 818
105.0405 814
105.0611 821
105.0816 783
105.1022 835
105.1227 801
105.1433 810
105.1638 812
105.1844 856
105.2049 793
105.2254 801
105.2460 831
105.2665 806
105.2871 854
105.3076 819
105.3282 782
105.3487 767
105.3693 811
105.3898 790
105.4104 828
105.4309 805
105.4515 771
105.4720 836
105.4926 782
105.5131 813
105.5337 816
105.5542 793
105.5748 824
105.5953 762
105.6159 800
105.6364 770
105.6569 785
105.6775 811
105.6980 852
105.7186 771
105.7391 833
105.7597 830
105.7802 823
105.8008 842
105.8213 812
105.8419 799
105.8624 795
105.8830 786
105.9035 831
105.9241 818
105.9446 783
105.9652 773
105.9857 796
106.0063 866
106.0268 835
106.0474 748
106.0679 799
106.0885 838
106.1090 846
106.1296 817
106.1501 783
106.1706 757
106.1912 782
106.2117 814
106.2323 804
106.2528 813
106.2734 800
106.2939 774
106.3145 791
106.3350 877
106.3556 827
106.3761 867
106.3967 779
106.4172 827
106.4378 791
106.4583 846
106.4789 814
106.4994 775
106.5200 778
106.5405 769
106.5611 786
106.5816 812
106.6021 810
106.6227 765
106.6432 828
106.6638 777
106.6843 794
106.7049 796
106.7254 825
106.7460 789
106.7665 820
106.7871 817
106.8076 827
106.8282 817
106.8487 761
106.8693 783
106.8898 787
106.9104 813
106.9309 747
106.9515 781
106.9720 788
106.9926 840
107.0131 791
107.0336 775
107.0542 759
107.0747 840
107.0953 830
107.1158 822
107.1364 823
107.1569 822
107.1775 797
107.1980 826
107.2186 797
107.2391 801
107.2597 805
107.2802 768
107.3008 823
107.3213 851
107.3419 826
107.3624 848
107.3830 811
107.4035 797
107.4241 802
107.4446 793
107.4652 827
107.4857 777
107.5063 783
107.5268 817
107.5473 765
107.5679 876
107.5884 843
107.6090 818
107.6295 867
107.6501 821
107.6706 770
107.6912 761
107.7117 814
107.7323 778
107.7528 868
107.7734 820
107.7939 822
107.8145 759
107.8350 802
107.8556 806
107.8761 792
107.8967 791
107.9172 830
107.9378 824
107.9583 747
107.9788 802
107.9994 770
108.0199 849
108.0405 810
108.0610 810
108.0816 817
108.1021 832
108.1227 786
108.1432 767
108.1638 818
108.1843 795
108.2049 825
108.2254 811
108.2460 786
108.2665 837
108.2871 783
108.3076 837
108.3282 814
108.3487 817
108.3693 817
108.3898 827
108.4104 757
108.4309 805
108.4515 778
108.4720 791
108.4925 836
108.5131 845
108.5336 809
108.5542 747
108.5747 794
108.5953 754
108.6158 828
108.6364 822
108.6569 847
108.6775 816
108.6980 818
108.7186 825
108.7391 787
108.7597 816
108.7802 781
108.8008 820
108.8213 818
108.8419 835
108.8624 793
108.8830 756
108.9035 860
108.9240 794
108.9446 754
108.9651 782
108.9857 790
109.0062 821
109.0268 844
109.0473 795
109.0679 822
109.0884 795
109.1090 796
109.1295 833
109.1501 829
109.1706 793
109.1912 785
109.2117 782
109.2323 758
109.2528 829
109.2734 816
109.2939 847
109.3145 795
109.3350 779
109.3556 806
109.3761 806
109.3966 776
109.4172 843
109.4377 778
109.4583 829
109.4788 793
109.4994 779
109.5199 802
109.5405 802
109.5610 771
109.5816 829
109.6021 806
109.6227 836
109.6432 872
109.6638 714
109.6843 764
109.7049 764
109.7254 751
109.7460 800
109.7665 824
109.7871 832
109.8076 815
109.8282 733
109.8487 794
109.8693 757
109.8898 786
109.9103 816
109.9309 816
109.9514 778
109.9720 767
109.9925 775
110.0131 725
110.0336 784
110.0542 782
110.0747 799
110.0953 760
110.1158 759
110.1364 801
110.1569 784
110.1775 783
110.1980 749
110.2186 794
110.2391 757
110.2597 753
110.2802 749
110.3008 794
110.3213 734
110.3418 733
110.3624 732
110.3829 746
110.4035 777
110.4240 769
110.4446 758
110.4651 775
110.4857 754
110.5062 770
110.5268 737
110.5473 822
110.5679 756
110.5884 723
110.6090 779
110.6295 737
110.6501 776
110.6706 715
110.6912 760
110.7117 736
110.7323 741
110.7528 717
110.7733 757
110.7939 752
110.8144 729
110.8350 743
110.8555 740
110.8761 717
110.8966 741
110.9172 734
110.9377 704
110.9583 766
110.9788 727
110.9994 672
111.0199 806
111.0405 745
111.0610 753
111.0816 739
111.1021 711
111.1227 723
111.1432 693
111.1638 692
111.1843 739
111.2049 682
111.2254 710
111.2460 694
111.2665 724
111.2870 685
111.3076 772
111.3281 706
111.3487 748
111.3692 698
111.3898 726
111.4103 764
111.4309 735
111.4514 662
111.4720 713
111.4925 658
111.5131 686
111.5336 670
111.5542 689
111.5747 684
111.5953 691
111.6158 715
111.6364 693
111.6569 716
111.6775 697
111.6980 693
111.7185 675
111.7391 666
111.7596 716
111.7802 680
111.8007 700
111.8213 676
111.8418 682
111.8624 686
111.8829 682
111.9035 699
111.9240 701
111.9446 660
111.9651 656
111.9857 664
112.0062 641
112.0268 652
112.0473 665
112.0679 657
112.0884 714
112.1090 615
112.1295 647
112.1501 658
112.1706 657
112.1912 634
112.2117 650
112.2322 586
112.2528 620
112.2733 595
112.2939 616
112.3144 587
112.3350 613
112.3555 662
112.3761 620
112.3966 639
112.4172 585
112.4377 533
112.4583 598
112.4788 541
112.4994 596
112.5199 542
112.5405 560
112.5610 532
112.5816 544
112.6021 527
112.6227 562
112.6432 521
112.6637 520
112.6843 545
112.7048 526
112.7254 520
112.7459 527
112.7665 499
112.7870 480
112.8076 516
112.8281 479
112.8487 467
112.8692 473
112.8898 447
112.9103 507
112.9309 484
112.9514 439
112.9720 452
112.9925 496
113.0131 438
113.0336 446
113.0542 437
113.0747 463
113.0952 435
113.1158 445
113.1363 481
113.1569 457
113.1774 396
113.1980 370
113.2185 418
113.2391 414
113.2596 406
113.2802 405
113.3007 416
113.3213 379
113.3418 425
113.3624 396
113.3829 366
113.4035 367
113.4240 409
113.4446 383
113.4651 338
113.4857 361
113.5062 361
113.5268 377
113.5473 363
113.5679 319
113.5884 323
113.6089 343
113.6295 326
113.6500 326
113.6706 328
113.6911 321
113.7117 333
113.7322 264
113.7528 310
113.7733 343
113.7939 318
113.8144 292
113.8350 300
113.8555 296
113.8761 283
113.8966 252
113.9172 287
113.9377 256
113.9583 300
113.9788 264
113.9994 258
114.0199 259
114.0405 264
114.0610 229
114.0815 244
114.1021 224
114.1226 217
114.1432 240
114.1637 237
114.1843 231
114.2048 206
114.2254 216
114.2459 189
114.2665 215
114.2870 198
114.3076 169
114.3281 191
114.3487 194
114.3692 190
114.3898 171
114.4103 180
114.4309 164
114.4514 160
114.4720 159
114.4925 138
114.5131 132
114.5336 143
114.5541 151
114.5747 151
114.5952 129
114.6158 134
114.6363 117
114.6569 122
114.6774 133
114.6980 100
114.7185 108
114.7391 99
114.7596 108
114.7802 93
114.8007 100
114.8213 72
114.8418 84
114.8624 66
114.8829 66
114.9035 72
114.9240 52
114.9446 59
114.9651 52
114.9857 48
115.0062 48
115.0267 40
115.0473 32
115.0678 42
115.0884 33
115.1089 38
115.1295 37
115.1500 47
115.1706 36
115.1911 30
115.2117 33
115.2322 28
115.2528 39
115.2733 29
115.2939 36
115.3144 27
115.3350 34
115.3555 34
115.3761 26
115.3966 29
115.4172 32
115.4377 38
115.4582 36
115.4788 26
115.4993 30
115.5199 36
115.5404 34
115.5610 27
115.5815 33
115.6021 28
115.6226 25
115.6432 27
115.6637 26
115.6843 29
115.7048 22
115.7254 24
115.7459 22
115.7665 28
115.7870 30
115.8076 44
115.8281 34
115.8487 26
115.8692 27
115.8898 27
115.9103 30
115.9309 27
115.9514 26
115.9719 18
115.9925 26
116.0130 19
116.0336 19
116.0541 21
116.0747 28
116.0952 30
116.1158 32
116.1363 26
116.1569 21
116.1774 19
116.1980 19
116.2185 26
116.2391 25
116.2596 20
116.2802 29
116.3007 33
116.3213 24
116.3418 23
116.3624 13
116.3829 21
116.4034 14
116.4240 18
116.4445 16
116.4651 16
116.4856 21
116.5062 28
116.5267 19
116.5473 22
116.5678 9
116.5884 14
116.6089 23
116.6295 15
116.6500 27
116.6706 13
116.6911 24
116.7117 20
116.7322 20
116.7528 21
116.7733 21
116.7939 20
116.8144 19
116.8349 19
116.8555 26
116.8760 19
116.8966 23
116.9171 20
116.9377 22
116.9582 26
116.9788 22
116.9993 15
117.0199 20
117.0404 18
117.0610 17
117.0815 22
117.1021 25
117.1226 22
117.1432 16
117.1637 24
117.1843 15
117.2048 14
117.2254 22
117.2459 27
117.2665 24
117.2870 19
117.3076 22
117.3281 17
117.3486 18
117.3692 19
117.3897 15
117.4103 32
117.4308 21
117.4514 28
117.4719 16
117.4925 21
117.5130 17
117.5336 17
117.5541 28
117.5747 25
117.5952 23
117.6158 14
117.6363 21
117.6569 25
117.6774 34
117.6980 19
117.7185 30
117.7391 23
117.7596 20
117.7801 27
117.8007 24
117.8212 31
117.8418 27
117.8623 28
117.8829 23
117.9034 25
117.9240 19
117.9445 35
117.9651 21
117.9856 22
118.0062 27
118.0267 16
118.0473 26
118.0678 25
118.0884 18
118.1089 26
118.1295 24
118.1500 25
118.1706 24
118.1911 25
118.2117 23
118.2322 24
118.2528 20
118.2733 25
118.2938 19
118.3144 17
118.3349 27
118.3555 29
118.3760 24
118.3966 30
118.4171 19
118.4377 32
118.4582 23
118.4788 28
118.4993 28
118.5199 28
118.5404 21
118.5610 25
118.5815 27
118.6021 18
118.6226 28
118.6432 25
118.6637 26
118.6843 30
118.7048 34
118.7254 27
118.7459 34
118.7664 20
118.7870 29
118.8075 22
118.8281 32
118.8486 34
118.8692 24
118.8897 32
118.9103 30
118.9308 30
118.9514 37
118.9719 30
118.9925 34
119.0130 22
119.0336 31
119.0541 29
119.0747 21
119.0952 19
119.1158 41
119.1363 21
119.1569 24
119.1774 21
119.1979 29
119.2185 32
119.2390 29
119.2596 33
119.2801 23
119.3007 38
119.3212 43
119.3418 33
119.3623 34
119.3829 29
119.4034 34
119.4240 38
119.4445 33
119.4651 32
119.4856 40
119.5062 36
119.5267 44
119.5473 36
119.5678 47
119.5884 31
119.6089 40
119.6295 35
119.6500 35
119.6706 40
119.6911 28
119.7116 30
119.7322 45
119.7527 37
119.7733 37
119.7938 37
119.8144 38
119.8349 37
119.8555 37
119.8760 39
119.8966 40
119.9171 38
119.9377 51
119.9582 38
119.9788 39
119.9993 32
