?
30.0     885
30.02054 828
30.04109 863
30.06164 824
30.08219 872
30.10273 924
30.12328 919
30.14383 865
30.16438 882
30.18493 884
30.20547 825
30.22602 896
30.24657 828
30.26712 830
30.28767 813
30.30821 843
30.32876 832
30.34931 884
30.36986 845
30.39040 875
30.41095 879
30.43150 857
30.45205 857
30.47259 901
30.49314 829
30.51369 892
30.53424 871
30.55479 854
30.57533 886
30.59588 814
30.61643 871
30.63698 860
30.65753 870
30.67807 829
30.69862 847
30.71917 791
30.73972 868
30.76026 847
30.78081 892
30.80136 832
30.82191 927
30.84246 882
30.86300 878
30.88355 835
30.90410 802
30.92465 891
30.94519 851
30.96574 804
30.98629 843
31.00684 842
31.02739 898
31.04793 866
31.06848 830
31.08903 818
31.10958 920
31.13012 857
31.15067 864
31.17122 882
31.19177 878
31.21232 883
31.23286 839
31.25341 839
31.27396 830
31.29451 867
31.31506 834
31.33560 854
31.35615 876
31.37670 854
31.39725 865
31.41779 886
31.43834 828
31.45889 822
31.47944 868
31.49998 882
31.52053 874
31.54108 847
31.56163 847
31.58218 900
31.60272 871
31.62327 897
31.64382 890
31.66437 869
31.68491 892
31.70546 883
31.72601 867
31.74656 824
31.76711 850
31.78765 833
31.80820 820
31.82875 845
31.84930 871
31.86985 812
31.89039 818
31.91094 818
31.93149 863
31.95204 839
31.97258 894
31.99313 868
32.01368 855
32.03423 882
32.05477 911
32.07532 840
32.09587 865
32.11642 842
32.13697 890
32.15752 811
32.17806 919
32.19861 849
32.21916 843
32.23971 816
32.26025 877
32.28080 853
32.30135 877
32.32190 813
32.34244 841
32.36299 820
32.38354 806
32.40409 833
32.42464 830
32.44518 851
32.46573 850
32.48628 848
32.50683 833
32.52737 839
32.54792 842
32.56847 848
32.58902 816
32.60957 867
32.63011 901
32.65066 872
32.67121 873
32.69176 877
32.71231 828
32.73285 884
32.75340 889
32.77395 870
32.79450 808
32.81504 874
32.83559 775
32.85614 870
32.87669 881
32.89724 862
32.91778 886
32.93833 911
32.95888 886
32.97943 847
32.99997 845
33.02052 857
33.04107 850
33.06162 848
33.08216 800
33.10271 882
33.12326 848
33.14381 865
33.16436 878
33.18491 841
33.20545 840
33.22600 840
33.24655 849
33.26710 888
33.28764 864
33.30819 859
33.32874 845
33.34929 862
33.36983 856
33.39038 849
33.41093 887
33.43148 837
33.45203 906
33.47258 822
33.49312 839
33.51367 870
33.53422 871
33.55476 839
33.57531 821
33.59586 853
33.61641 884
33.63695 833
33.65750 860
33.67805 854
33.69860 866
33.71915 810
33.7397  848
33.76024 889
33.78079 836
33.80134 851
33.82189 880
33.84243 811
33.86298 797
33.88353 865
33.90408 854
33.92462 835
33.94517 888
33.96572 870
33.98627 860
34.00682 881
34.02737 899
34.04791 859
34.06846 819
34.08901 858
34.10955 870
34.13010 848
34.15065 818
34.17120 831
34.19175 857
34.21229 847
34.23284 905
34.25339 823
34.27394 767
34.29449 886
34.31503 856
34.33558 826
34.35613 833
34.37668 869
34.39722 832
34.41777 848
34.43832 887
34.45887 858
34.47942 864
34.49996 924
34.52051 825
34.54106 898
34.56161 896
34.58216 808
34.60270 812
34.62325 870
34.64380 882
34.66435 841
34.68489 817
34.70544 867
34.72599 891
34.74654 892
34.76709 872
34.78763 873
34.80818 835
34.82873 868
34.84928 861
34.86982 886
34.89037 872
34.91092 880
34.93147 840
34.95201 885
34.97256 882
34.99311 818
35.01366 852
35.03421 886
35.05476 903
35.07530 865
35.09585 856
35.11640 847
35.13695 850
35.15749 843
35.17804 873
35.19859 855
35.21914 860
35.23968 892
35.26023 907
35.28078 905
35.30133 910
35.32188 827
35.34242 866
35.36297 860
35.38352 794
35.40407 895
35.42461 902
35.44516 841
35.46571 827
35.48626 873
35.50680 889
35.52735 912
35.54790 853
35.56845 878
35.58900 938
35.60955 862
35.63009 860
35.65064 856
35.67119 871
35.69174 863
35.71228 907
35.73283 888
35.75338 872
35.77393 875
35.79447 806
35.81502 842
35.83557 853
35.85612 859
35.87667 852
35.89721 823
35.91776 893
35.93831 853
35.95886 871
35.97940 884
35.99995 803
36.02050 856
36.04105 841
36.0616  859
36.08215 918
36.10269 797
36.12324 862
36.14379 852
36.16434 860
36.18488 875
36.20543 878
36.22598 874
36.24653 858
36.26707 875
36.28762 855
36.30817 892
36.32872 875
36.34927 826
36.36982 849
36.39036 887
36.41091 887
36.43146 837
36.45200 847
36.47255 864
36.49310 880
36.51365 871
36.53419 866
36.55474 855
36.57529 853
36.59584 863
36.61639 873
36.63694 876
36.65748 907
36.67803 874
36.69858 883
36.71913 849
36.73967 806
36.76022 841
36.78077 867
36.80132 871
36.82186 932
36.84241 822
36.86296 840
36.88351 836
36.90406 835
36.92461 845
36.94515 822
36.96570 856
36.98625 819
37.00680 857
37.02734 823
37.04789 821
37.06844 832
37.08898 834
37.10953 843
37.13008 898
37.15063 841
37.17118 875
37.19173 828
37.21227 846
37.23282 875
37.25337 859
37.27392 870
37.29446 864
37.31501 872
37.33556 842
37.35611 898
37.37665 875
37.39720 841
37.41775 800
37.43830 854
37.45885 841
37.47940 904
37.49994 818
37.52049 905
37.54104 833
37.56159 852
37.58213 804
37.60268 909
37.62323 865
37.64378 850
37.66433 846
37.68487 894
37.70542 856
37.72597 826
37.74652 842
37.76706 881
37.78761 821
37.80816 897
37.82871 846
37.84925 861
37.86980 837
37.89035 906
37.91090 883
37.93145 863
37.952   851
37.97254 873
37.99309 871
38.01364 820
38.03419 866
38.05473 884
38.07528 874
38.09583 811
38.11638 814
38.13692 912
38.15747 824
38.17802 909
38.19857 853
38.21912 866
38.23966 867
38.26021 881
38.28076 858
38.30131 850
38.32185 827
38.34240 896
38.36295 884
38.38350 871
38.40404 826
38.42459 855
38.44514 910
38.46569 843
38.48624 909
38.50679 892
38.52733 830
38.54788 882
38.56843 900
38.58898 844
38.60952 848
38.63007 893
38.65062 842
38.67117 833
38.69171 858
38.71226 856
38.73281 911
38.75336 845
38.77391 828
38.79445 922
38.81500 876
38.83555 867
38.85610 867
38.87664 853
38.89719 898
38.91774 867
38.93829 896
38.95883 897
38.97938 906
38.99993 883
39.02048 911
39.04103 849
39.06158 916
39.08212 897
39.10267 825
39.12322 892
39.14377 867
39.16431 849
39.18486 878
39.20541 845
39.22596 810
39.24651 872
39.26705 932
39.28760 877
39.30815 853
39.32870 832
39.34925 849
39.36979 841
39.39034 922
39.41089 875
39.43143 820
39.45198 860
39.47253 868
39.49308 908
39.51363 895
39.53418 856
39.55472 854
39.57527 902
39.59582 859
39.61637 855
39.63691 824
39.65746 888
39.67801 880
39.69856 877
39.71910 839
39.73965 858
39.76020 833
39.78075 893
39.8013  839
39.82185 859
39.84239 869
39.86294 859
39.88349 839
39.90404 883
39.92458 835
39.94513 893
39.96568 844
39.98622 866
40.00677 885
40.02732 907
40.04787 852
40.06842 884
40.08897 878
40.10951 832
40.13006 832
40.15061 901
40.17116 782
40.19170 866
40.21225 888
40.23280 860
40.25335 881
40.27389 854
40.29444 850
40.31499 839
40.33554 865
40.35609 900
40.37664 832
40.39718 873
40.41773 851
40.43828 870
40.45883 819
40.47937 825
40.49992 820
40.52047 900
40.54101 882
40.56156 921
40.58211 856
40.60266 857
40.62321 852
40.64376 843
40.66430 897
40.68485 854
40.70540 892
40.72595 888
40.74649 861
40.76704 862
40.78759 849
40.80814 873
40.82869 826
40.84923 878
40.86978 902
40.89033 904
40.91088 878
40.93143 857
40.95197 853
40.97252 872
40.99307 882
41.01362 869
41.03416 880
41.05471 851
41.07526 906
41.09581 875
41.11636 874
41.13690 874
41.15745 826
41.17800 911
41.19855 856
41.21909 888
41.23964 889
41.26019 889
41.28074 849
41.30128 893
41.32183 878
41.34238 891
41.36293 905
41.38348 859
41.40403 868
41.42457 892
41.44512 883
41.46567 843
41.48622 872
41.50676 909
41.52731 902
41.54786 843
41.56841 837
41.58895 878
41.60950 847
41.63005 865
41.65060 904
41.67115 872
41.69169 835
41.71224 868
41.73279 845
41.75334 839
41.77388 859
41.79443 920
41.81498 868
41.83553 891
41.85607 904
41.87662 881
41.89717 821
41.91772 938
41.93827 860
41.95882 860
41.97936 893
41.99991 921
42.02046 919
42.04101 906
42.06155 888
42.08210 847
42.10265 904
42.12320 868
42.14374 885
42.16429 853
42.18484 872
42.20539 855
42.22594 904
42.24649 895
42.26703 891
42.28758 902
42.30813 913
42.32867 864
42.34922 868
42.36977 880
42.39032 890
42.41087 906
42.43141 886
42.45196 903
42.47251 921
42.49306 866
42.51361 893
42.53415 901
42.55470 869
42.57525 865
42.59580 904
42.61634 850
42.63689 872
42.65744 845
42.67799 923
42.69854 879
42.71909 907
42.73963 919
42.76018 950
42.78073 880
42.80128 962
42.82182 899
42.84237 856
42.86292 873
42.88346 892
42.90401 888
42.92456 896
42.94511 961
42.96566 943
42.98621 871
43.00675 889
43.02730 894
43.04785 910
43.06840 906
43.08894 881
43.10949 915
43.13004 890
43.15059 938
43.17113 962
43.19168 905
43.21223 898
43.23278 855
43.25333 931
43.27388 923
43.29442 940
43.31497 1004
43.33552 1003
43.35607 1024
43.37661 1095
43.39716 1123
43.41771 1160
43.43826 1146
43.45880 1306
43.47935 1295
43.49990 1416
43.52045 1671
43.541   1874
43.56154 2238
43.58209 2873
43.60264 3504
43.62319 4058
43.64373 3924
43.66428 3312
43.68483 2805
43.70538 2705
43.72592 2826
43.74647 2791
43.76702 2342
43.78757 1892
43.80812 1617
43.82867 1321
43.84921 1230
43.86976 1149
43.89031 1138
43.91086 1066
43.93140 1113
43.95195 1036
43.97250 997
43.99305 970
44.01359 1049
44.03414 995
44.05469 988
44.07524 1085
44.09579 1014
44.11633 987
44.13688 990
44.15743 979
44.17798 1003
44.19852 1024
44.21907 1052
44.23962 1100
44.26017 1067
44.28072 1104
44.30127 1151
44.32181 1186
44.34236 1189
44.36291 1179
44.38346 1195
44.40400 1292
44.42455 1264
44.44510 1334
44.46565 1291
44.48619 1286
44.50674 1320
44.52729 1281
44.54784 1292
44.56839 1306
44.58894 1319
44.60948 1286
44.63003 1215
44.65058 1253
44.67112 1213
44.69167 1199
44.71222 1170
44.73277 1132
44.75331 1109
44.77386 1089
44.79441 1081
44.81496 1109
44.83551 1074
44.85606 1011
44.87660 945
44.89715 1014
44.91770 1004
44.93825 947
44.95879 1025
44.97934 892
44.99989 943
45.02044 879
45.04098 929
45.06153 898
45.08208 869
45.10263 909
45.12318 915
45.14373 912
45.16427 875
45.18482 894
45.20537 895
45.22591 872
45.24646 860
45.26701 886
45.28756 878
45.30810 812
45.32865 888
45.34920 868
45.36975 913
45.39030 877
45.41085 897
45.43139 881
45.45194 898
45.47249 888
45.49304 918
45.51358 821
45.53413 883
45.55468 884
45.57523 962
45.59577 876
45.61632 879
45.63687 891
45.65742 844
45.67797 912
45.69852 855
45.71906 862
45.73961 890
45.76016 841
45.78070 902
45.80125 838
45.82180 890
45.84235 906
45.8629  877
45.88345 920
45.90399 843
45.92454 849
45.94509 825
45.96564 879
45.98618 926
46.00673 867
46.02728 889
46.04783 896
46.06837 919
46.08892 867
46.10947 871
46.13002 866
46.15057 901
46.17112 838
46.19166 905
46.21221 856
46.23276 877
46.25331 845
46.27385 877
46.29440 916
46.31495 929
46.33550 887
46.35604 912
46.37659 890
46.39714 828
46.41769 832
46.43824 870
46.45878 922
46.47933 871
46.49988 880
46.52043 878
46.54097 939
46.56152 853
46.58207 869
46.60262 858
46.62316 844
46.64371 839
46.66426 861
46.68481 891
46.70536 882
46.72591 880
46.74645 881
46.76700 856
46.78755 889
46.80810 827
46.82864 893
46.84919 852
46.86974 885
46.89029 839
46.91083 849
46.93138 845
46.95193 865
46.97248 906
46.99303 874
47.01357 823
47.03412 960
47.05467 937
47.07522 885
47.09576 919
47.11631 834
47.13686 876
47.15741 861
47.17795 867
47.19850 839
47.21905 954
47.23960 870
47.26015 849
47.28070 871
47.30124 860
47.32179 848
47.34234 863
47.36289 834
47.38343 888
47.40398 802
47.42453 894
47.44508 842
47.46563 868
47.48617 826
47.50672 892
47.52727 853
47.54782 852
47.56836 887
47.58891 785
47.60946 898
47.63001 821
47.65055 861
47.67110 850
47.69165 843
47.71220 905
47.73275 843
47.7533  886
47.77384 877
47.79439 874
47.81494 873
47.83549 841
47.85603 845
47.87658 821
47.89713 836
47.91768 808
47.93822 841
47.95877 898
47.97932 843
47.99987 864
48.02042 921
48.04097 839
48.06151 890
48.08206 838
48.10261 870
48.12315 885
48.14370 837
48.16425 882
48.18480 866
48.20534 845
48.22589 897
48.24644 876
48.26699 862
48.28754 814
48.30809 886
48.32863 843
48.34918 921
48.36973 878
48.39028 901
48.41082 856
48.43137 852
48.45192 860
48.47247 844
48.49301 900
48.51356 903
48.53411 899
48.55466 823
48.57521 882
48.59576 822
48.61630 894
48.63685 910
48.65740 893
48.67795 899
48.69849 880
48.71904 846
48.73959 842
48.76013 845
48.78068 856
48.80123 844
48.82178 800
48.84233 878
48.86288 801
48.88342 887
48.90397 893
48.92452 863
48.94507 870
48.96561 874
48.98616 912
49.00671 860
49.02726 824
49.04781 846
49.06835 892
49.08890 878
49.10945 937
49.13000 813
49.15055 846
49.17109 815
49.19164 816
49.21219 922
49.23274 852
49.25328 945
49.27383 868
49.29438 808
49.31493 915
49.33548 887
49.35602 871
49.37657 793
49.39712 829
49.41767 873
49.43821 844
49.45876 857
49.47931 864
49.49986 899
49.52040 817
49.54095 872
49.56150 845
49.58205 841
49.6026  816
49.62315 886
49.64369 903
49.66424 890
49.68479 859
49.70534 885
49.72588 891
49.74643 863
49.76698 839
49.78753 873
49.80807 885
49.82862 890
49.84917 906
49.86972 884
49.89027 851
49.91081 817
49.93136 853
49.95191 894
49.97246 857
49.99300 909
50.01355 918
50.03410 871
50.05465 877
50.07519 951
50.09574 897
50.11629 844
50.13684 901
50.15739 789
50.17794 853
50.19848 817
50.21903 808
50.23958 867
50.26013 850
50.28067 854
50.30122 894
50.32177 934
50.34232 891
50.36286 821
50.38341 892
50.40396 870
50.42451 869
50.44506 836
50.46560 858
50.48615 870
50.50670 921
50.52725 917
50.54779 917
50.56834 922
50.58889 856
50.60944 901
50.62999 946
50.65053 887
50.67108 866
50.69163 906
50.71218 929
50.73273 988
50.75327 971
50.77382 943
50.79437 969
50.81492 962
50.83546 877
50.85601 877
50.87656 935
50.89711 932
50.91766 863
50.93821 908
50.95875 910
50.97930 901
50.99985 893
51.02040 857
51.04094 887
51.06149 899
51.08204 889
51.10258 898
51.12313 862
51.14368 825
51.16423 843
51.18478 907
51.20533 871
51.22587 837
51.24642 926
51.26697 861
51.28752 894
51.30806 822
51.32861 822
51.34916 861
51.36971 797
51.39025 909
51.41080 861
51.43135 866
51.45190 841
51.47245 876
51.493   919
51.51354 874
51.53409 839
51.55464 858
51.57519 839
51.59573 898
51.61628 888
51.63683 794
51.65737 906
51.67792 850
51.69847 922
51.71902 871
51.73957 914
51.76012 884
51.78066 865
51.80121 905
51.82176 868
51.84231 876
51.86285 884
51.88340 867
51.90395 878
51.92450 913
51.94504 901
51.96559 816
51.98614 819
52.00669 857
52.02724 857
52.04779 879
52.06833 897
52.08888 852
52.10943 818
52.12998 853
52.15052 867
52.17107 885
52.19162 884
52.21217 855
52.23271 824
52.25326 858
52.27381 889
52.29436 874
52.31491 856
52.33545 857
52.35600 896
52.37655 874
52.39710 896
52.41764 847
52.43819 869
52.45874 859
52.47929 878
52.49984 868
52.52039 857
52.54093 855
52.56148 833
52.58203 830
52.60258 893
52.62312 843
52.64367 874
52.66422 863
52.68477 815
52.70531 835
52.72586 857
52.74641 859
52.76696 886
52.78751 907
52.80805 871
52.82860 864
52.84915 872
52.86970 860
52.89024 821
52.91079 894
52.93134 864
52.95189 856
52.97243 856
52.99298 858
53.01353 882
53.03408 877
53.05463 909
53.07518 875
53.09572 838
53.11627 873
53.13682 826
53.15737 837
53.17791 865
53.19846 884
53.21901 863
53.23956 883
53.26010 819
53.28065 878
53.30120 848
53.32175 856
53.3423  882
53.36285 887
53.38339 875
53.40394 908
53.42449 863
53.44503 922
53.46558 825
53.48613 879
53.50668 875
53.52722 911
53.54777 869
53.56832 874
53.58887 854
53.60942 858
53.62997 835
53.65051 859
53.67106 890
53.69161 885
53.71216 840
53.73270 882
53.75325 846
53.77380 812
53.79435 884
53.81489 908
53.83544 848
53.85599 883
53.87654 889
53.89709 850
53.91764 911
53.93818 907
53.95873 803
53.97928 823
53.99982 849
54.02037 832
54.04092 865
54.06147 856
54.08202 861
54.10257 926
54.12311 810
54.14366 882
54.16421 861
54.18476 889
54.20530 867
54.22585 846
54.24640 867
54.26695 898
54.28749 809
54.30804 812
54.32859 896
54.34914 865
54.36969 859
54.39024 861
54.41078 851
54.43133 861
54.45188 874
54.47243 859
54.49297 854
54.51352 796
54.53407 847
54.55461 906
54.57516 831
54.59571 893
54.61626 866
54.63681 895
54.65736 886
54.67790 913
54.69845 859
54.71900 872
54.73955 912
54.76009 888
54.78064 887
54.80119 877
54.82174 851
54.84228 886
54.86283 842
54.88338 857
54.90393 856
54.92448 809
54.94503 903
54.96557 873
54.98612 918
55.00667 872
55.02722 854
55.04776 869
55.06831 840
55.08886 839
55.10941 853
55.12995 915
55.15050 856
55.17105 859
55.19160 899
55.21215 915
55.23269 911
55.25324 928
55.27379 883
55.29434 876
55.31488 853
55.33543 840
55.35598 853
55.37653 813
55.39707 893
55.41762 870
55.43817 858
55.45872 845
55.47927 839
55.49982 852
55.52036 870
55.54091 822
55.56146 829
55.58201 850
55.60255 873
55.62310 863
55.64365 873
55.66420 865
55.68475 839
55.70529 885
55.72584 861
55.74639 905
55.76694 917
55.78748 875
55.80803 893
55.82858 853
55.84913 871
55.86967 878
55.89022 809
55.91077 845
55.93132 866
55.95187 929
55.97242 899
55.99296 879
56.01351 892
56.03406 846
56.05461 894
56.07515 918
56.09570 847
56.11625 868
56.13680 899
56.15734 884
56.17789 838
56.19844 851
56.21899 896
56.23954 830
56.26009 853
56.28063 905
56.30118 926
56.32173 862
56.34227 908
56.36282 875
56.38337 875
56.40392 902
56.42446 910
56.44501 884
56.46556 860
56.48611 845
56.50666 866
56.52721 886
56.54775 817
56.56830 875
56.58885 842
56.60940 806
56.62994 816
56.65049 862
56.67104 876
56.69159 856
56.71213 892
56.73268 844
56.75323 855
56.77378 831
56.79433 849
56.81488 858
56.83542 806
56.85597 845
56.87652 854
56.89706 866
56.91761 889
56.93816 854
56.95871 863
56.97925 836
56.99980 836
57.02035 912
57.04090 791
57.06145 891
57.08200 881
57.10254 877
57.12309 836
57.14364 918
57.16419 870
57.18473 924
57.20528 799
57.22583 831
57.24638 861
57.26693 852
57.28747 775
57.30802 827
57.32857 833
57.34912 895
57.36967 904
57.39021 874
57.41076 828
57.43131 850
57.45186 842
57.47240 826
57.49295 911
57.51350 864
57.53405 852
57.5546  796
57.57514 839
57.59569 869
57.61624 894
57.63679 834
57.65733 859
57.67788 931
57.69843 895
57.71898 854
57.73952 826
57.76007 892
57.78062 884
57.80117 869
57.82172 868
57.84227 877
57.86281 837
57.88336 857
57.90391 850
57.92446 945
57.94500 839
57.96555 882
57.98610 830
58.00665 864
58.02719 821
58.04774 838
58.06829 848
58.08884 856
58.10939 808
58.12993 914
58.15048 874
58.17103 856
58.19158 819
58.21212 905
58.23267 856
58.25322 858
58.27377 869
58.29431 892
58.31486 833
58.33541 858
58.35596 825
58.37651 914
58.39706 818
58.41760 873
58.43815 913
58.45870 820
58.47925 843
58.49979 876
58.52034 844
58.54089 819
58.56144 808
58.58198 888
58.60253 806
58.62308 881
58.64363 830
58.66418 868
58.68472 858
58.70527 851
58.72582 841
58.74637 881
58.76691 831
58.78746 850
58.80801 884
58.82856 836
58.84911 830
58.86965 852
58.89020 839
58.91075 871
58.93130 840
58.95185 841
58.97239 844
58.99294 845
59.01349 840
59.03404 885
59.05458 913
59.07513 825
59.09568 879
59.11623 845
59.13678 824
59.15733 838
59.17787 859
59.19842 830
59.21897 878
59.23951 870
59.26006 818
59.28061 871
59.30116 852
59.32170 875
59.34225 906
59.36280 856
59.38335 840
59.4039  919
59.42445 844
59.44499 866
59.46554 823
59.48609 862
59.50664 848
59.52718 851
59.54773 862
59.56828 850
59.58883 850
59.60937 863
59.62992 865
59.65047 854
59.67102 860
59.69157 859
59.71212 871
59.73266 848
59.75321 892
59.77376 915
59.79431 929
59.81485 811
59.83540 861
59.85595 878
59.87649 859
59.89704 899
59.91759 852
59.93814 855
59.95869 848
59.97924 857
59.99978 864
60.02033 850
60.04088 904
60.06143 835
60.08197 868
60.10252 816
60.12307 886
60.14362 887
60.16416 895
60.18471 825
60.20526 886
60.22581 919
60.24636 838
60.26691 879
60.28745 885
60.30800 879
60.32855 890
60.34910 857
60.36964 894
60.39019 837
60.41074 826
60.43129 888
60.45183 861
60.47238 825
60.49293 852
60.51348 829
60.53403 870
60.55457 825
60.57512 852
60.59567 877
60.61622 868
60.63676 880
60.65731 832
60.67786 835
60.69841 864
60.71896 901
60.73951 844
60.76005 929
60.78060 899
60.80115 897
60.82170 781
60.84224 834
60.86279 869
60.88334 837
60.90389 856
60.92443 924
60.94498 863
60.96553 853
60.98608 888
61.00663 876
61.02717 883
61.04772 875
61.06827 841
61.08882 885
61.10936 863
61.12991 852
61.15046 901
61.17101 861
61.19155 865
61.21210 928
61.23265 854
61.25320 863
61.27375 878
61.2943  897
61.31484 857
61.33539 858
61.35594 880
61.37649 821
61.39703 825
61.41758 859
61.43813 887
61.45868 848
61.47922 879
61.49977 839
61.52032 875
61.54087 874
61.56142 895
61.58196 866
61.60251 838
61.62306 846
61.64361 864
61.66415 817
61.68470 890
61.70525 815
61.72580 838
61.74634 825
61.76689 874
61.78744 850
61.80799 857
61.82854 827
61.84909 886
61.86963 889
61.89018 888
61.91073 860
61.93128 874
61.95182 859
61.97237 821
61.99292 830
62.01347 873
62.03401 831
62.05456 885
62.07511 851
62.09566 863
62.11621 896
62.13676 861
62.15730 888
62.17785 889
62.19840 898
62.21894 910
62.23949 898
62.26004 910
62.28059 890
62.30114 855
62.32169 862
62.34223 829
62.36278 866
62.38333 854
62.40388 816
62.42442 876
62.44497 880
62.46552 857
62.48607 850
62.50661 887
62.52716 791
62.54771 838
62.56826 858
62.58881 880
62.60936 812
62.62990 839
62.65045 858
62.67100 865
62.69155 860
62.71209 866
62.73264 833
62.75319 892
62.77373 883
62.79428 881
62.81483 886
62.83538 895
62.85593 818
62.87648 858
62.89702 842
62.91757 833
62.93812 839
62.95867 923
62.97921 813
62.99976 843
63.02031 896
63.04086 862
63.06140 902
63.08195 839
63.10250 875
63.12305 895
63.1436  879
63.16415 886
63.18469 848
63.20524 890
63.22579 898
63.24634 841
63.26688 876
63.28743 865
63.30798 890
63.32852 838
63.34907 896
63.36962 880
63.39017 894
63.41072 955
63.43127 872
63.45181 872
63.47236 833
63.49291 838
63.51346 884
63.53400 857
63.55455 879
63.57510 883
63.59565 873
63.61619 841
63.63674 906
63.65729 851
63.67784 929
63.69839 844
63.71894 848
63.73948 875
63.76003 860
63.78058 823
63.80113 844
63.82167 868
63.84222 848
63.86277 894
63.88332 848
63.90387 879
63.92441 876
63.94496 852
63.96551 844
63.98606 851
64.00660 898
64.02715 921
64.04770 940
64.06825 851
64.08879 905
64.10934 914
64.12989 889
64.15044 897
64.17099 882
64.19153 853
64.21209 899
64.23263 882
64.25318 903
64.27372 875
64.29428 902
64.31482 902
64.33537 852
64.35591 852
64.37647 912
64.39701 922
64.41756 867
64.43811 873
64.45866 867
64.47921 917
64.49975 892
64.52030 942
64.54084 931
64.56140 901
64.58194 899
64.60249 938
64.62303 903
64.64359 910
64.66413 884
64.68468 906
64.70523 970
64.72578 937
64.74633 936
64.76687 929
64.78742 974
64.80797 919
64.82852 920
64.84906 934
64.86961 864
64.89016 947
64.91071 933
64.93125 950
64.95180 953
64.97235 909
64.99290 932
65.01345 926
65.03399 915
65.05455 878
65.07509 912
65.09564 943
65.11618 949
65.13673 931
65.15728 940
65.17783 889
65.19838 963
65.21892 893
65.23947 880
65.26002 893
65.28057 913
65.30111 850
65.32167 910
65.34221 936
65.36276 857
65.38330 854
65.40386 937
65.42440 830
65.44495 869
65.4655  865
65.48605 899
65.50659 892
65.52714 926
65.54769 906
65.56824 824
65.58879 896
65.60933 897
65.62988 915
65.65043 841
65.67098 861
65.69152 849
65.71207 885
65.73262 891
65.75317 847
65.77372 865
65.79426 873
65.81481 923
65.83536 872
65.85591 862
65.87645 958
65.89700 894
65.91755 831
65.93810 871
65.95864 877
65.97919 843
65.99974 880
66.02029 883
66.04084 871
66.06138 867
66.08194 874
66.10248 935
66.12303 858
66.14357 843
66.16413 895
66.18467 892
66.20522 931
66.22576 887
66.24631 860
66.26686 908
66.28741 905
66.30796 846
66.32850 893
66.34906 819
66.36960 875
66.39015 870
66.41069 850
66.43125 878
66.45179 880
66.47234 906
66.49288 861
66.51344 869
66.53398 861
66.55453 842
66.57508 865
66.59563 886
66.61618 865
66.63672 808
66.65727 861
66.67782 884
66.69837 951
66.71891 848
66.73946 897
66.76001 887
66.78056 907
66.80110 888
66.82165 869
66.84220 833
66.86275 866
66.88330 868
66.90384 817
66.92439 905
66.94494 857
66.96549 844
66.98603 874
67.00658 873
67.02713 864
67.04768 890
67.06823 899
67.08877 850
67.10932 856
67.12987 851
67.15042 846
67.17096 844
67.19152 906
67.21206 840
67.23261 847
67.25315 836
67.27371 910
67.29425 852
67.31480 834
67.33535 838
67.35590 846
67.37645 857
67.39699 855
67.41754 851
67.43808 866
67.45864 937
67.47918 914
67.49973 868
67.52027 863
67.54083 893
67.56137 837
67.58192 829
67.60247 912
67.62302 869
67.64357 835
67.66411 851
67.68466 866
67.70521 856
67.72576 879
67.74630 932
67.76685 911
67.78740 890
67.80795 858
67.82849 842
67.84904 872
67.86959 805
67.89014 845
67.91069 802
67.93123 883
67.95179 847
67.97233 873
67.99288 826
68.01342 836
68.03397 889
68.05452 849
68.07507 871
68.09561 904
68.11616 818
68.13671 919
68.15726 846
68.17781 866
68.19835 889
68.21891 850
68.23945 829
68.26000 886
68.28054 828
68.30110 890
68.32164 772
68.34219 873
68.36274 857
68.38329 870
68.40383 798
68.42438 856
68.44493 886
68.46548 853
68.48603 862
68.50657 877
68.52712 887
68.54767 858
68.56822 831
68.58876 867
68.60931 840
68.62986 884
68.65041 823
68.67095 862
68.69150 823
68.71205 856
68.73260 858
68.75315 838
68.77369 884
68.79424 856
68.81479 857
68.83534 836
68.85588 854
68.87643 876
68.89698 836
68.91753 832
68.93808 859
68.95862 842
68.97917 860
68.99972 869
69.02027 879
69.04081 825
69.06137 841
69.08191 838
69.10246 845
69.12300 893
69.14356 883
69.16410 837
69.18465 873
69.2052  870
69.22574 808
69.2463  879
69.26684 865
69.28739 833
69.30793 864
69.32849 825
69.34903 905
69.36958 897
69.39012 901
69.41068 898
69.43122 890
69.45177 824
69.47232 850
69.49287 896
69.51342 922
69.53396 849
69.55451 859
69.57506 875
69.59561 893
69.61615 883
69.63670 824
69.65725 892
69.67780 845
69.69834 863
69.71889 910
69.73944 906
69.75999 818
69.78054 885
69.80108 830
69.82163 843
69.84218 851
69.86273 837
69.88327 871
69.90382 849
69.92437 875
69.94492 884
69.96546 866
69.98601 858
70.00656 857
70.02711 872
70.04766 913
70.06820 909
70.08876 870
70.10930 877
70.12985 867
70.15039 832
70.17095 895
70.19149 900
70.21204 836
70.23259 874
70.25314 922
70.27368 886
70.29423 875
70.31478 871
70.33532 861
70.35588 879
70.37642 851
70.39697 862
70.41751 894
70.43807 823
70.45861 804
70.47916 839
70.49971 871
70.52026 855
70.54081 866
70.56135 887
70.58190 879
70.60245 820
70.62300 843
70.64354 825
70.66409 907
70.68464 835
70.70519 829
70.72573 878
70.74628 854
70.76683 824
70.78738 862
70.80793 863
70.82847 816
70.84903 889
70.86957 868
70.89012 919
70.91066 841
70.93121 875
70.95176 862
70.97231 827
70.99285 863
71.01340 852
71.03395 850
71.05450 861
71.07505 876
71.09559 821
71.11615 932
71.13669 861
71.15724 834
71.17778 887
71.19834 854
71.21888 845
71.23943 846
71.25997 859
71.28053 873
71.30107 890
71.32162 829
71.34217 909
71.36272 859
71.38327 867
71.40381 897
71.42436 903
71.44491 897
71.46546 898
71.48600 881
71.50655 884
71.5271  870
71.54765 866
71.56819 921
71.58874 859
71.60929 872
71.62984 844
71.65039 915
71.67093 867
71.69148 863
71.71203 901
71.73258 889
71.75312 865
71.77367 805
71.79422 895
71.81477 860
71.83532 901
71.85586 867
71.87641 830
71.89696 841
71.91751 886
71.93805 848
71.95861 878
71.97915 884
71.99970 856
72.02024 897
72.04080 870
72.06134 882
72.08189 843
72.10244 910
72.12298 865
72.14353 872
72.16408 841
72.18463 900
72.20517 887
72.22573 868
72.24627 876
72.26682 922
72.28736 868
72.30792 862
72.32846 806
72.34901 843
72.36956 812
72.39011 891
72.41066 876
72.43120 872
72.45175 886
72.47230 839
72.49285 821
72.51339 870
72.53394 883
72.55449 881
72.57504 889
72.59558 842
72.61613 829
72.63668 839
72.65723 890
72.67778 865
72.69832 900
72.71887 857
72.73942 858
72.75997 846
72.78051 858
72.80106 836
72.82161 860
72.84216 831
72.86270 847
72.88325 876
72.90380 915
72.92435 901
72.94490 813
72.96544 830
72.986   884
73.00654 876
73.02709 877
73.04763 851
73.06819 918
73.08873 858
73.10928 900
73.12982 907
73.15038 917
73.17092 854
73.19147 850
73.21202 870
73.23257 880
73.25312 860
73.27366 846
73.29421 822
73.31475 863
73.33531 821
73.35585 877
73.37640 853
73.39695 957
73.41750 915
73.43804 858
73.45859 902
73.47914 871
73.49969 879
73.52024 881
73.54078 863
73.56133 920
73.58188 846
73.60243 858
73.62297 920
73.64352 862
73.66407 864
73.68462 825
73.70517 807
73.72571 877
73.74626 854
73.76681 885
73.78736 902
73.80790 927
73.82846 829
73.84900 849
73.86955 901
73.89009 882
73.91064 874
73.93119 854
73.95174 858
73.97229 863
73.99283 887
74.01339 891
74.03393 916
74.05448 873
74.07502 863
74.09558 841
74.11612 910
74.13667 845
74.15721 895
74.17777 817
74.19831 917
74.21886 839
74.23941 869
74.25996 890
74.28051 891
74.30105 862
74.32160 882
74.34215 931
74.36270 946
74.38324 913
74.40379 930
74.42433 923
74.44489 914
74.46543 898
74.48598 931
74.50653 931
74.52708 895
74.54763 933
74.56817 906
74.58872 940
74.60927 978
74.62982 964
74.65036 995
74.67091 1057
74.69146 1031
74.71201 1122
74.73255 1045
74.75310 1040
74.77365 1001
74.79420 961
74.81475 965
74.83529 988
74.85585 986
74.87639 988
74.89694 997
74.91748 957
74.93804 974
74.95858 949
74.97913 906
74.99968 943
75.02022 931
75.04077 884
75.06132 901
75.08187 922
75.10241 947
75.12297 905
75.14351 887
75.16406 938
75.18460 895
75.20516 891
75.22570 918
75.24625 865
75.2668  887
75.28735 877
75.30789 909
75.32844 895
75.34899 858
75.36954 846
75.39009 878
75.41063 918
75.43118 839
75.45173 857
75.47228 942
75.49282 861
75.51337 951
75.53392 919
75.55447 862
75.57502 847
75.59556 887
75.61611 889
75.63666 900
75.65721 858
75.67775 866
75.69830 919
75.71885 846
75.73940 859
75.75994 888
75.78049 844
75.80104 884
75.82159 858
75.84214 884
75.86268 858
75.88324 844
75.90378 851
75.92433 846
75.94487 926
75.96543 843
75.98597 888
76.00652 889
76.02706 858
76.04762 822
76.06816 886
76.08871 844
76.10926 834
76.12981 836
76.15036 883
76.17090 869
76.19145 892
76.21199 845
76.23255 876
76.25309 857
76.27364 881
76.29418 835
76.31474 908
76.33528 864
76.35583 833
76.37638 872
76.39693 892
76.41748 911
76.43802 892
76.45857 821
76.47912 864
76.49967 892
76.52021 842
76.54076 838
76.56131 869
76.58186 862
76.60240 830
76.62295 896
76.64350 892
76.66405 855
76.68460 827
76.70514 825
76.7257  892
76.74624 883
76.76679 895
76.78733 860
76.80788 887
76.82843 898
76.84898 848
76.86953 893
76.89007 858
76.91062 875
76.93117 881
76.95172 890
76.97226 883
76.99282 865
77.01336 915
77.03391 877
77.05445 862
77.07501 878
77.09555 858
77.11610 821
77.13665 889
77.15720 822
77.17775 879
77.19829 835
77.21884 890
77.23939 863
77.25994 906
77.28048 875
77.30103 819
77.32158 833
77.34213 879
77.36267 857
77.38322 875
77.40377 812
77.42432 918
77.44487 850
77.46541 907
77.48596 878
77.50651 877
77.52706 864
77.54760 899
77.56815 874
77.58870 815
77.60925 799
77.62979 898
77.65034 855
77.67089 862
77.69144 873
77.71199 887
77.73253 874
77.75309 874
77.77363 895
77.79418 895
77.81472 890
77.83528 846
77.85582 870
77.87637 837
77.89691 847
77.91747 897
77.93801 909
77.95856 913
77.97911 841
77.99965 880
78.02021 856
78.04075 848
78.06130 872
78.08184 849
78.10240 950
78.12294 933
78.14349 886
78.16404 798
78.18459 902
78.20513 870
78.22568 875
78.24623 797
78.26678 872
78.28733 872
78.30787 871
78.32842 842
78.34897 875
78.36952 852
78.39006 883
78.41061 897
78.43116 852
78.45171 851
78.47226 914
78.49280 849
78.51335 868
78.53390 907
78.55445 888
78.57499 841
78.59554 916
78.61609 892
78.63664 896
78.65718 875
78.67773 855
78.69828 862
78.71883 878
78.73938 846
78.75992 907
78.78047 834
78.80102 855
78.82157 870
78.84211 903
78.86267 871
78.88321 839
78.90376 856
78.92430 897
78.94486 893
78.96540 875
78.98595 828
79.0065  930
79.02705 919
79.0476  915
79.06814 922
79.08869 887
79.10923 848
79.12979 879
79.15033 895
79.17088 876
79.19142 903
79.21198 869
79.23252 831
79.25307 917
79.27362 863
79.29417 835
79.31472 900
79.33526 900
79.35581 868
79.37636 893
79.39691 873
79.41745 934
79.43800 825
79.45855 865
79.47910 869
79.49964 878
79.52019 875
79.54074 864
79.56129 869
79.58184 886
79.60238 881
79.62294 878
79.64348 915
79.66403 834
79.68457 863
79.70512 946
79.72567 892
79.74622 864
79.76676 928
79.78731 850
79.80786 891
79.82841 874
79.84896 871
79.86950 883
79.89006 870
79.91060 859
79.93115 885
79.95169 851
79.97225 899
79.99279 918
80.01334 912
80.03389 977
80.05444 821
80.07498 870
80.09553 820
80.11608 901
80.13663 903
80.15718 840
80.17772 874
80.19827 859
80.21882 805
80.23937 917
80.25991 908
80.28046 880
80.30101 857
80.32156 854
80.34211 895
80.36265 871
80.38320 857
80.40375 904
80.42430 823
80.44484 853
80.46539 864
80.48594 908
80.50649 864
80.52703 954
80.54758 900
80.56813 860
80.58868 885
80.60923 885
80.62977 854
80.65033 857
80.67087 920
80.69142 902
80.71196 896
80.73252 897
80.75306 869
80.77361 863
80.79415 872
80.81471 861
80.83525 861
80.85580 865
80.87635 872
80.89689 888
80.91745 934
80.93799 879
80.95854 824
80.97908 912
80.99964 908
81.02018 872
81.04073 857
81.06127 919
81.08183 846
81.10237 889
81.12292 915
81.14347 891
81.16402 849
81.18457 935
81.20511 857
81.22566 915
81.24621 896
81.26676 907
81.28730 859
81.30785 875
81.32840 895
81.34895 862
81.36949 926
81.39004 914
81.41059 900
81.43114 908
81.45169 926
81.47223 935
81.49278 918
81.51333 935
81.53388 883
81.55442 935
81.57497 936
81.59552 910
81.61607 905
81.63662 927
81.65716 910
81.67771 920
81.69826 961
81.71881 893
81.73935 957
81.75991 940
81.78045 832
81.80100 878
81.82154 924
81.84210 928
81.86264 963
81.88319 906
81.90374 903
81.92429 938
81.94483 951
81.96538 979
81.98593 882
82.00648 931
82.02703 926
82.04757 954
82.06812 935
82.08866 930
82.10922 906
82.12976 918
82.15031 964
82.17086 918
82.19141 919
82.21196 883
82.23250 913
82.25305 957
82.27360 898
82.29415 876
82.31469 893
82.33524 1005
82.35579 953
82.37634 909
82.39688 925
82.41743 949
82.43798 931
82.45853 876
82.47908 958
82.49962 882
82.52018 887
82.54072 859
82.56127 887
82.58181 883
82.60237 854
82.62291 934
82.64346 873
82.66400 912
82.68455 911
82.70510 899
82.72565 869
82.74620 862
82.76674 899
82.7873  912
82.80784 859
82.82839 914
82.84893 836
82.86949 864
82.89003 905
82.91058 835
82.93112 862
82.95168 854
82.97222 800
82.99277 873
83.01332 871
83.03387 882
83.05442 876
83.07496 884
83.09551 874
83.11606 953
83.13661 884
83.15715 919
83.17770 902
83.19825 922
83.21880 825
83.23934 848
83.25989 869
83.28044 854
83.30099 893
83.32154 839
83.34208 830
83.36263 862
83.38318 877
83.40373 885
83.42427 853
83.44482 874
83.46537 877
83.48592 850
83.50647 884
83.52701 902
83.54756 933
83.56811 825
83.58866 895
83.60920 873
83.62976 887
83.65030 864
83.67085 878
83.69139 864
83.71195 882
83.73249 854
83.75304 852
83.77359 894
83.79413 881
83.81469 836
83.83523 831
83.85578 886
83.87632 839
83.89688 926
83.91742 892
83.93797 835
83.95851 892
83.97907 908
83.99961 865
84.02016 840
84.04071 884
84.06126 861
84.08181 920
84.10235 843
84.12290 841
84.14345 835
84.16400 849
84.18454 908
84.20509 850
84.22564 849
84.24619 896
84.26673 902
84.28728 901
84.30783 852
84.32838 854
84.34893 849
84.36947 883
84.39002 870
84.41057 886
84.43112 897
84.45166 849
84.47221 846
84.49276 891
84.51331 837
84.53385 866
84.55440 893
84.57495 862
84.59550 839
84.61605 905
84.63659 877
84.65715 909
84.67769 866
84.69824 815
84.71878 885
84.73934 882
84.75988 904
84.78043 878
84.80098 863
84.82153 847
84.84207 892
84.86262 913
84.88317 894
84.90372 902
84.92427 865
84.94481 816
84.96536 899
84.98590 874
85.00646 856
85.02700 867
85.04755 912
85.0681  832
85.08865 877
85.1092  900
85.12974 865
85.15029 891
85.17084 872
85.19139 854
85.21193 894
85.23248 909
85.25303 861
85.27358 871
85.29412 889
85.31467 878
85.33522 917
85.35577 838
85.37632 833
85.39686 844
85.41741 828
85.43796 871
85.45851 870
85.47905 903
85.49961 874
85.52015 894
85.54070 875
85.56124 860
85.58179 856
85.60234 921
85.62289 897
85.64344 870
85.66398 867
85.68454 848
85.70508 897
85.72563 823
85.74617 848
85.76673 906
85.78727 879
85.80782 919
85.82836 830
85.84892 825
85.86946 881
85.89001 844
85.91056 891
85.93111 887
85.95166 852
85.97220 877
85.99275 841
86.01330 821
86.03385 870
86.05439 859
86.07494 871
86.09549 853
86.11604 834
86.13658 931
86.15713 900
86.17768 926
86.19823 844
86.21878 889
86.23932 902
86.25987 834
86.28042 899
86.30097 874
86.32151 886
86.34206 887
86.36261 821
86.38316 796
86.40370 859
86.42425 831
86.44480 855
86.46535 837
86.48590 893
86.50644 862
86.527   896
86.54754 848
86.56809 906
86.58863 847
86.60919 886
86.62973 877
86.65028 875
86.67083 875
86.69138 897
86.71192 871
86.73247 823
86.75302 822
86.77356 811
86.79412 883
86.81466 880
86.83521 881
86.85575 880
86.87631 891
86.89685 891
86.91740 824
86.93795 887
86.95850 884
86.97905 831
86.99959 837
87.02014 859
87.04069 828
87.06124 864
87.08178 895
87.10233 851
87.12288 913
87.14343 884
87.16397 857
87.18452 846
87.20507 920
87.22562 887
87.24617 850
87.26671 873
87.28726 879
87.30781 881
87.32836 877
87.34890 830
87.36945 916
87.39000 835
87.41055 894
87.43109 809
87.45164 860
87.47219 873
87.49274 865
87.51329 874
87.53383 879
87.55439 868
87.57493 872
87.59548 894
87.61602 887
87.63658 816
87.65712 899
87.67767 869
87.69821 847
87.71877 898
87.73931 856
87.75986 916
87.78041 885
87.80096 869
87.82151 833
87.84205 878
87.86260 859
87.88314 819
87.90370 858
87.92424 868
87.94479 883
87.96534 884
87.98589 900
88.00643 902
88.02698 851
88.04753 879
88.06808 836
88.08863 874
88.10917 899
88.12972 882
88.15027 868
88.17082 878
88.19136 902
88.21191 875
88.23246 903
88.25301 857
88.27356 906
88.29410 869
88.31465 840
88.33520 892
88.35575 851
88.37629 882
88.39685 848
88.41739 898
88.43794 892
88.45848 866
88.47903 847
88.49958 855
88.52013 835
88.54068 943
88.56122 828
88.58177 854
88.60232 960
88.62287 915
88.64341 879
88.66397 846
88.68451 853
88.70506 840
88.72560 826
88.74616 878
88.76670 842
88.78725 843
88.8078  907
88.82835 825
88.8489  846
88.86944 888
88.88999 912
88.91054 892
88.93109 811
88.95163 890
88.97218 892
88.99273 892
89.01328 868
89.03382 906
89.05437 919
89.07492 869
89.09547 850
89.11602 861
89.13656 878
89.15711 887
89.17766 905
89.19821 872
89.21875 841
89.23930 847
89.25985 881
89.28040 877
89.30094 879
89.32149 909
89.34204 862
89.36259 847
89.38314 921
89.40368 862
89.42424 901
89.44478 859
89.46533 865
89.48587 879
89.50643 895
89.52697 974
89.54752 878
89.56806 827
89.58862 870
89.60916 851
89.62971 885
89.65026 883
89.67080 866
89.69136 842
89.71190 899
89.73245 869
89.75299 882
89.77355 857
89.79409 898
89.81464 942
89.83519 893
89.85574 897
89.87628 859
89.89683 905
89.91738 883
89.93793 884
89.95848 886
89.97902 889
89.99957 934
90.02012 875
90.04067 904
90.06121 885
90.08176 857
90.10231 927
90.12286 914
90.14341 899
90.16395 960
90.18450 904
90.20505 928
90.22560 885
90.24614 909
90.26669 935
90.28724 941
90.30779 888
90.32833 955
90.34888 941
90.36943 930
90.38998 945
90.41053 957
90.43107 980
90.45163 1034
90.47217 1036
90.49272 1079
90.51326 1106
90.53382 1140
90.55436 1022
90.57491 1104
90.59545 1204
90.61601 1205
90.63655 1239
90.65710 1272
90.67765 1321
90.69820 1337
90.71875 1318
90.73929 1249
90.75984 1284
90.78039 1234
90.80094 1221
90.82148 1191
90.84203 1186
90.86257 1122
90.88313 1153
90.90367 1198
90.92422 1153
90.94477 1120
90.96532 1090
90.98587 1148
91.00641 1148
91.02696 1066
91.04751 1042
91.06806 1083
91.08860 1051
91.10915 897
91.12970 952
91.15025 1028
91.17079 963
91.19134 905
91.21189 951
91.23244 947
91.25299 957
91.27353 939
91.29409 892
91.31463 925
91.33518 967
91.35572 912
91.37627 936
91.39682 903
91.41737 871
91.43792 958
91.45846 866
91.47901 857
91.49956 910
91.52011 887
91.54065 889
91.56121 850
91.58175 858
91.60230 824
91.62284 870
91.64340 907
91.66394 841
91.68449 927
91.70504 877
91.72559 897
91.74614 872
91.76668 930
91.78723 875
91.80778 867
91.82833 929
91.84887 846
91.86942 890
91.88997 852
91.91052 841
91.93106 887
91.95161 892
91.97216 879
91.99271 898
92.01326 931
92.03380 900
92.05435 844
92.07490 919
92.09545 899
92.11599 943
92.13654 881
92.15709 954
92.17764 852
92.19818 875
92.21873 849
92.23928 924
92.25983 918
92.28038 861
92.30092 897
92.32148 937
92.34202 861
92.36257 951
92.38311 883
92.40367 895
92.42421 829
92.44476 921
92.46530 852
92.48586 853
92.50640 872
92.52695 888
92.54750 860
92.56804 869
92.5886  897
92.60914 941
92.62969 847
92.65023 843
92.67079 891
92.69133 886
92.71188 879
92.73243 825
92.75298 862
92.77352 857
92.79407 890
92.81462 856
92.83517 921
92.85572 848
92.87626 851
92.89681 872
92.91736 871
92.93791 886
92.95845 887
92.97900 900
92.99955 913
93.02010 885
93.04064 860
93.06119 881
93.08174 876
93.10229 876
93.12284 864
93.14338 846
93.16393 879
93.18448 832
93.20503 853
93.22557 893
93.24612 896
93.26667 880
93.28722 864
93.30777 882
93.32831 838
93.34886 811
93.36941 915
93.38996 905
93.41050 859
93.43106 862
93.45160 873
93.47215 904
93.49269 834
93.51325 839
93.53379 887
93.55434 855
93.57489 857
93.59544 811
93.61599 858
93.63653 901
93.65708 904
93.67763 828
93.69818 838
93.71872 917
93.73927 893
93.75981 897
93.78037 858
93.80091 862
93.82146 908
93.84201 817
93.86256 873
93.88311 901
93.90365 886
93.92420 869
93.94475 881
93.96530 852
93.98584 864
94.00639 846
94.02694 899
94.04749 897
94.06803 859
94.08858 876
94.10913 865
94.12968 843
94.15023 881
94.17077 874
94.19133 878
94.21187 881
94.23242 871
94.25296 899
94.27352 877
94.29406 846
94.31461 853
94.33515 868
94.35570 950
94.37625 875
94.39680 844
94.41735 892
94.43789 903
94.45845 925
94.47899 897
94.49954 863
94.52008 874
94.54064 834
94.56118 888
94.58173 889
94.60228 838
94.62283 889
94.64337 842
94.66392 896
94.68447 880
94.70502 847
94.72557 841
94.74611 854
94.76666 879
94.78721 844
94.80776 900
94.82830 828
94.84885 897
94.86940 899
94.88995 883
94.9105  883
94.93104 856
94.95159 902
94.97214 871
94.99269 833
95.01323 855
95.03378 891
95.05433 889
95.07488 874
95.09542 899
95.11597 919
95.13652 897
95.15707 878
95.17762 923
95.19816 914
95.21871 846
95.23926 855
95.25981 876
95.28035 874
95.30091 890
95.32145 892
95.34200 936
95.36254 906
95.38310 918
95.40364 928
95.42419 924
95.44474 921
95.46528 905
95.48584 917
95.50638 886
95.52693 845
95.54747 879
95.56803 860
95.58857 896
95.60912 937
95.62966 903
95.65022 897
95.67076 904
95.69131 885
95.71186 946
95.73241 909
95.75296 907
95.77350 970
95.79405 927
95.81460 927
95.83515 900
95.85569 955
95.87624 914
95.89679 993
95.91734 988
95.93788 983
95.95843 998
95.97898 998
95.99953 993
96.02008 990
96.04062 1027
96.06117 945
96.08172 942
96.10227 922
96.12281 882
96.14336 936
96.16391 962
96.18446 994
96.20500 963
96.22555 950
96.24610 933
96.26665 923
96.28720 908
96.30774 898
96.3283  887
96.34884 941
96.36939 922
96.38993 916
96.41049 923
96.43103 909
96.45158 919
96.47213 877
96.49268 879
96.51322 879
96.53377 928
96.55432 953
96.57487 849
96.59542 876
96.61596 942
96.63651 918
96.65705 869
96.67761 878
96.69815 872
96.71870 913
96.73925 849
96.75980 850
96.78035 913
96.80089 887
96.82144 964
96.84199 805
96.86254 930
96.88308 903
96.90363 847
96.92418 859
96.94473 935
96.96527 872
96.98582 883
97.00637 858
97.02692 861
97.04747 886
97.06801 836
97.08857 847
97.10911 833
97.12966 847
97.15020 865
97.17076 858
97.19130 902
97.21185 838
97.23239 898
97.25294 869
97.27349 888
97.29404 836
97.31459 851
97.33513 882
97.35569 859
97.37623 857
97.39678 846
97.41732 874
97.43788 842
97.45842 863
97.47897 891
97.49951 869
97.52007 904
97.54061 867
97.56116 956
97.58171 885
97.60226 875
97.62281 871
97.64335 884
97.66390 923
97.68445 857
97.70500 847
97.72554 875
97.74609 908
97.76664 892
97.78719 871
97.80773 902
97.82828 896
97.84883 855
97.86938 896
97.88993 836
97.91047 843
97.93102 898
97.95157 864
97.97212 874
97.99266 849
98.01321 890
98.03376 884
98.05431 907
98.07486 928
98.09540 882
98.11595 851
98.13650 908
98.15705 888
98.17759 899
98.19815 847
98.21869 927
98.23924 875
98.25978 919
98.28034 862
98.30088 875
98.32143 887
98.34198 900
98.36253 919
98.38308 885
98.40362 867
98.42417 838
98.44471 852
98.46527 865
98.48581 882
98.50636 898
98.52690 887
98.54746 919
98.56800 888
98.58855 934
98.6091  908
98.62965 889
98.6502  895
98.67074 867
98.69129 848
98.71184 884
98.73239 906
98.75293 924
98.77348 879
98.79403 906
98.81458 831
98.83512 864
98.85567 895
98.87622 898
98.89677 903
98.91732 916
98.93786 913
98.95842 864
98.97896 885
98.99951 892
99.02005 921
99.04060 927
99.06115 908
99.08170 876
99.10224 889
99.12279 870
99.14334 899
99.16389 886
99.18444 886
99.20498 878
99.22554 888
99.24608 915
99.26663 887
99.28717 870
99.30773 848
99.32827 906
99.34882 883
99.36937 905
99.38992 881
99.41046 911
99.43101 926
99.45156 844
99.47211 924
99.49266 904
99.51320 910
99.53375 906
99.55429 908
99.57485 858
99.59539 877
99.61594 859
99.63649 867
99.65704 854
99.67758 838
99.69813 916
99.71868 854
99.73923 943
99.75978 873
99.78032 852
99.80087 891
99.82142 881
99.84197 889
99.86251 903
99.88306 865
99.90361 881
99.92416 900
99.94471 837
99.96525 913
99.98580 856
100.0063 862
100.0269 855
100.0474 856
100.0680 901
100.0885 905
100.1090 852
100.1296 876
100.1501 892
100.1707 812
100.1912 839
100.2118 865
100.2323 870
100.2529 879
100.2734 855
100.2940 849
100.3145 869
100.3351 892
100.3556 900
100.3762 898
100.3967 880
100.4173 884
100.4378 895
100.4584 904
100.4789 934
100.4995 923
100.5200 883
100.5405 899
100.5611 911
100.5816 892
100.6022 882
100.6227 881
100.6433 879
100.6638 883
100.6844 867
100.7049 865
100.7255 866
100.7460 826
100.7666 907
100.7871 896
100.8077 850
100.8282 845
100.8488 882
100.8693 866
100.8899 861
100.9104 857
100.9310 855
100.9515 861
100.9720 870
100.9926 964
101.0131 899
101.0337 846
101.0542 871
101.0748 885
101.0953 886
101.1159 869
101.1364 887
101.1570 885
101.1775 921
101.1981 842
101.2186 836
101.2392 891
101.2597 948
101.2803 907
101.3008 917
101.3214 893
101.3419 855
101.3625 877
101.3830 921
101.4036 868
101.4241 823
101.4447 851
101.4652 833
101.4857 824
101.5063 897
101.5268 887
101.5474 852
101.5679 866
101.5885 877
101.6090 883
101.6296 842
101.6501 832
101.6707 880
101.6912 887
101.7118 834
101.7323 822
101.7529 885
101.7734 875
101.7940 874
101.8145 824
101.8351 857
101.8556 896
101.8762 912
101.8967 857
101.9172 857
101.9378 902
101.9583 935
101.9789 863
101.9994 877
102.0200 926
102.0405 889
102.0611 878
102.0816 877
102.1022 867
102.1227 869
102.1433 873
102.1638 880
102.1844 916
102.2049 913
102.2255 872
102.2460 878
102.2666 837
102.2871 858
102.3077 947
102.3282 867
102.3488 858
102.3693 902
102.3899 823
102.4104 869
102.4309 904
102.4515 903
102.4720 851
102.4926 915
102.5131 874
102.5337 854
102.5542 875
102.5748 867
102.5953 833
102.6159 886
102.6364 886
102.6570 863
102.6775 875
102.6981 858
102.7186 834
102.7392 814
102.7597 870
102.7803 847
102.8008 862
102.8214 927
102.8419 854
102.8624 889
102.8830 937
102.9035 897
102.9241 880
102.9446 886
102.9652 860
102.9857 868
103.0063 893
103.0268 867
103.0474 875
103.0679 880
103.0885 862
103.1090 841
103.1296 901
103.1501 894
103.1707 887
103.1912 816
103.2118 851
103.2323 868
103.2529 890
103.2734 851
103.2939 892
103.3145 930
103.3350 918
103.3556 896
103.3761 821
103.3967 890
103.4172 845
103.4378 877
103.4583 865
103.4789 859
103.4994 897
103.5200 904
103.5405 851
103.5611 916
103.5816 880
103.6022 904
103.6227 866
103.6433 898
103.6638 902
103.6844 878
103.7049 886
103.7255 854
103.7460 901
103.7666 900
103.7871 946
103.8076 876
103.8282 864
103.8487 845
103.8693 892
103.8898 912
103.9104 910
103.9309 920
103.9515 867
103.9720 870
103.9926 844
104.0131 875
104.0337 876
104.0542 865
104.0748 882
104.0953 830
104.1159 924
104.1364 886
104.1570 891
104.1775 871
104.1981 882
104.2186 877
104.2391 870
104.2597 896
104.2802 875
104.3008 846
104.3213 885
104.3419 900
104.3624 878
104.3830 878
104.4035 884
104.4241 874
104.4446 882
104.4652 871
104.4857 900
104.5063 840
104.5268 856
104.5474 839
104.5679 868
104.5885 893
104.6090 862
104.6296 900
104.6501 909
104.6707 898
104.6912 844
104.7118 851
104.7323 843
104.7528 861
104.7734 876
104.7939 966
104.8145 911
104.8350 863
104.8556 832
104.8761 855
104.8967 918
104.9172 859
104.9378 954
104.9583 892
104.9789 914
104.9994 892
105.0200 856
105.0405 809
105.0611 838
105.0816 904
105.1022 870
105.1227 873
105.1433 891
105.1638 935
105.1844 874
105.2049 852
105.2254 858
105.2460 886
105.2665 923
105.2871 855
105.3076 906
105.3282 846
105.3487 856
105.3693 904
105.3898 876
105.4104 888
105.4309 875
105.4515 883
105.4720 906
105.4926 911
105.5131 849
105.5337 875
105.5542 907
105.5748 887
105.5953 900
105.6159 904
105.6364 902
105.6569 887
105.6775 890
105.6980 840
105.7186 902
105.7391 850
105.7597 809
105.7802 891
105.8008 907
105.8213 946
105.8419 877
105.8624 860
105.8830 896
105.9035 887
105.9241 864
105.9446 842
105.9652 891
105.9857 870
106.0063 845
106.0268 860
106.0474 858
106.0679 884
106.0885 861
106.1090 882
106.1296 922
106.1501 878
106.1706 872
106.1912 873
106.2117 893
106.2323 856
106.2528 921
106.2734 861
106.2939 781
106.3145 856
106.3350 877
106.3556 819
106.3761 867
106.3967 862
106.4172 887
106.4378 910
106.4583 901
106.4789 875
106.4994 950
106.5200 822
106.5405 916
106.5611 845
106.5816 867
106.6021 876
106.6227 864
106.6432 918
106.6638 931
106.6843 889
106.7049 933
106.7254 819
106.7460 854
106.7665 887
106.7871 867
106.8076 912
106.8282 870
106.8487 888
106.8693 823
106.8898 856
106.9104 872
106.9309 847
106.9515 835
106.9720 880
106.9926 924
107.0131 906
107.0336 919
107.0542 854
107.0747 856
107.0953 890
107.1158 842
107.1364 891
107.1569 863
107.1775 909
107.1980 915
107.2186 901
107.2391 881
107.2597 840
107.2802 879
107.3008 943
107.3213 892
107.3419 889
107.3624 908
107.3830 885
107.4035 912
107.4241 877
107.4446 872
107.4652 888
107.4857 864
107.5063 904
107.5268 839
107.5473 857
107.5679 947
107.5884 871
107.6090 856
107.6295 872
107.6501 858
107.6706 846
107.6912 873
107.7117 844
107.7323 854
107.7528 925
107.7734 860
107.7939 840
107.8145 845
107.8350 858
107.8556 874
107.8761 896
107.8967 855
107.9172 892
107.9378 845
107.9583 852
107.9788 912
107.9994 915
108.0199 884
108.0405 864
108.0610 877
108.0816 880
108.1021 867
108.1227 878
108.1432 835
108.1638 873
108.1843 897
108.2049 885
108.2254 875
108.2460 909
108.2665 886
108.2871 899
108.3076 904
108.3282 880
108.3487 897
108.3693 834
108.3898 852
108.4104 922
108.4309 864
108.4515 900
108.4720 911
108.4925 827
108.5131 876
108.5336 932
108.5542 888
108.5747 871
108.5953 899
108.6158 824
108.6364 882
108.6569 865
108.6775 909
108.6980 801
108.7186 854
108.7391 851
108.7597 871
108.7802 856
108.8008 904
108.8213 821
108.8419 859
108.8624 893
108.8830 837
108.9035 846
108.9240 865
108.9446 898
108.9651 871
108.9857 839
109.0062 887
109.0268 857
109.0473 866
109.0679 915
109.0884 874
109.1090 870
109.1295 872
109.1501 854
109.1706 889
109.1912 871
109.2117 868
109.2323 828
109.2528 832
109.2734 831
109.2939 836
109.3145 886
109.3350 822
109.3556 907
109.3761 879
109.3966 877
109.4172 874
109.4377 842
109.4583 907
109.4788 894
109.4994 831
109.5199 834
109.5405 904
109.5610 841
109.5816 915
109.6021 838
109.6227 855
109.6432 884
109.6638 855
109.6843 885
109.7049 890
109.7254 889
109.7460 905
109.7665 876
109.7871 885
109.8076 891
109.8282 888
109.8487 863
109.8693 893
109.8898 865
109.9103 876
109.9309 891
109.9514 868
109.9720 896
109.9925 889
110.0131 818
110.0336 864
110.0542 833
110.0747 841
110.0953 873
110.1158 862
110.1364 854
110.1569 878
110.1775 874
110.1980 886
110.2186 892
110.2391 905
110.2597 835
110.2802 882
110.3008 804
110.3213 800
110.3418 885
110.3624 892
110.3829 853
110.4035 815
110.4240 830
110.4446 901
110.4651 861
110.4857 859
110.5062 794
110.5268 857
110.5473 875
110.5679 843
110.5884 860
110.6090 834
110.6295 886
110.6501 840
110.6706 846
110.6912 826
110.7117 848
110.7323 813
110.7528 839
110.7733 778
110.7939 821
110.8144 846
110.8350 818
110.8555 820
110.8761 793
110.8966 755
110.9172 796
110.9377 843
110.9583 787
110.9788 815
110.9994 833
111.0199 846
111.0405 847
111.0610 873
111.0816 845
111.1021 825
111.1227 858
111.1432 886
111.1638 794
111.1843 799
111.2049 820
111.2254 783
111.2460 853
111.2665 808
111.2870 793
111.3076 849
111.3281 806
111.3487 748
111.3692 787
111.3898 813
111.4103 805
111.4309 822
111.4514 800
111.4720 793
111.4925 793
111.5131 814
111.5336 824
111.5542 822
111.5747 814
111.5953 783
111.6158 888
111.6364 847
111.6569 740
111.6775 771
111.6980 818
111.7185 740
111.7391 802
111.7596 838
111.7802 831
111.8007 790
111.8213 776
111.8418 764
111.8624 774
111.8829 742
111.9035 812
111.9240 786
111.9446 809
111.9651 761
111.9857 767
112.0062 824
112.0268 764
112.0473 812
112.0679 775
112.0884 785
112.1090 768
112.1295 838
112.1501 803
112.1706 749
112.1912 739
112.2117 747
112.2322 798
112.2528 743
112.2733 778
112.2939 791
112.3144 771
112.3350 788
112.3555 743
112.3761 739
112.3966 767
112.4172 734
112.4377 742
112.4583 793
112.4788 743
112.4994 767
112.5199 779
112.5405 721
112.5610 712
112.5816 749
112.6021 746
112.6227 682
112.6432 682
112.6637 747
112.6843 712
112.7048 747
112.7254 724
112.7459 751
112.7665 707
112.7870 680
112.8076 690
112.8281 674
112.8487 671
112.8692 654
112.8898 709
112.9103 631
112.9309 634
112.9514 650
112.9720 640
112.9925 604
113.0131 638
113.0336 606
113.0542 555
113.0747 601
113.0952 651
113.1158 591
113.1363 608
113.1569 596
113.1774 597
113.1980 575
113.2185 600
113.2391 565
113.2596 545
113.2802 550
113.3007 565
113.3213 537
113.3418 561
113.3624 519
113.3829 589
113.4035 525
113.4240 542
113.4446 510
113.4651 533
113.4857 541
113.5062 559
113.5268 537
113.5473 514
113.5679 483
113.5884 502
113.6089 507
113.6295 505
113.6500 473
113.6706 459
113.6911 469
113.7117 486
113.7322 474
113.7528 515
113.7733 423
113.7939 444
113.8144 443
113.8350 407
113.8555 441
113.8761 452
113.8966 444
113.9172 407
113.9377 402
113.9583 420
113.9788 416
113.9994 420
114.0199 399
114.0405 422
114.0610 409
114.0815 387
114.1021 387
114.1226 407
114.1432 394
114.1637 409
114.1843 370
114.2048 359
114.2254 357
114.2459 357
114.2665 336
114.2870 372
114.3076 334
114.3281 327
114.3487 325
114.3692 334
114.3898 303
114.4103 333
114.4309 298
114.4514 310
114.4720 316
114.4925 307
114.5131 280
114.5336 289
114.5541 303
114.5747 277
114.5952 263
114.6158 250
114.6363 266
114.6569 246
114.6774 247
114.6980 232
114.7185 205
114.7391 245
114.7596 226
114.7802 219
114.8007 238
114.8213 204
114.8418 205
114.8624 186
114.8829 210
114.9035 187
114.9240 182
114.9446 184
114.9651 193
114.9857 177
115.0062 185
115.0267 179
115.0473 160
115.0678 182
115.0884 158
115.1089 129
115.1295 146
115.1500 127
115.1706 132
115.1911 120
115.2117 115
115.2322 126
115.2528 102
115.2733 115
115.2939 103
115.3144 74
115.3350 107
115.3555 82
115.3761 89
115.3966 79
115.4172 78
115.4377 68
115.4582 58
115.4788 47
115.4993 55
115.5199 44
115.5404 37
115.5610 37
115.5815 26
115.6021 34
115.6226 25
115.6432 26
115.6637 30
115.6843 26
115.7048 25
115.7254 20
115.7459 22
115.7665 14
115.7870 26
115.8076 18
115.8281 24
115.8487 24
115.8692 19
115.8898 18
115.9103 21
115.9309 22
115.9514 14
115.9719 21
115.9925 16
116.0130 17
116.0336 14
116.0541 18
116.0747 24
116.0952 21
116.1158 15
116.1363 28
116.1569 16
116.1774 20
116.1980 15
116.2185 19
116.2391 8
116.2596 19
116.2802 14
116.3007 18
116.3213 14
116.3418 19
116.3624 19
116.3829 13
116.4034 14
116.4240 11
116.4445 15
116.4651 15
116.4856 12
116.5062 11
116.5267 9
116.5473 9
116.5678 16
116.5884 13
116.6089 10
116.6295 9
116.6500 9
116.6706 4
116.6911 10
116.7117 10
116.7322 7
116.7528 6
116.7733 11
116.7939 9
116.8144 5
116.8349 8
116.8555 8
116.8760 5
116.8966 8
116.9171 9
116.9377 8
116.9582 4
116.9788 2
116.9993 3
117.0199 5
117.0404 5
117.0610 2
117.0815 2
117.1021 0
117.1226 4
117.1432 2
117.1637 1
117.1843 3
117.2048 2
117.2254 3
117.2459 3
117.2665 2
117.2870 0
117.3076 3
117.3281 1
117.3486 2
117.3692 4
117.3897 0
117.4103 1
117.4308 0
117.4514 2
117.4719 2
117.4925 0
117.5130 2
117.5336 3
117.5541 2
117.5747 4
117.5952 3
117.6158 2
117.6363 1
117.6569 1
117.6774 1
117.6980 0
117.7185 0
117.7391 0
117.7596 3
117.7801 0
117.8007 0
117.8212 3
117.8418 1
117.8623 1
117.8829 1
117.9034 1
117.9240 3
117.9445 0
117.9651 0
117.9856 1
118.0062 5
118.0267 1
118.0473 4
118.0678 2
118.0884 1
118.1089 2
118.1295 1
118.1500 3
118.1706 4
118.1911 1
118.2117 3
118.2322 2
118.2528 0
118.2733 1
118.2938 2
118.3144 0
118.3349 1
118.3555 0
118.3760 1
118.3966 5
118.4171 1
118.4377 3
118.4582 3
118.4788 4
118.4993 5
118.5199 3
118.5404 3
118.5610 3
118.5815 3
118.6021 0
118.6226 4
118.6432 1
118.6637 1
118.6843 2
118.7048 4
118.7254 3
118.7459 3
118.7664 3
118.7870 1
118.8075 1
118.8281 2
118.8486 0
118.8692 2
118.8897 3
118.9103 2
118.9308 1
118.9514 1
118.9719 4
118.9925 0
119.0130 3
119.0336 2
119.0541 3
119.0747 2
119.0952 2
119.1158 2
119.1363 1
119.1569 1
119.1774 1
119.1979 2
119.2185 3
119.2390 1
119.2596 1
119.2801 0
119.3007 0
119.3212 4
119.3418 2
119.3623 2
119.3829 1
119.4034 1
119.4240 0
119.4445 2
119.4651 4
119.4856 2
119.5062 1
119.5267 5
119.5473 0
119.5678 0
119.5884 3
119.6089 0
119.6295 2
119.6500 6
119.6706 3
119.6911 6
119.7116 2
119.7322 5
119.7527 10
119.7733 2
119.7938 4
119.8144 6
119.8349 4
119.8555 10
119.8760 5
119.8966 10
119.9171 5
119.9377 14
119.9582 5
119.9788 6
119.9993 6
