?
20.0     346
20.02054 347
20.04109 324
20.06164 301
20.08219 317
20.10273 301
20.12328 337
20.14383 306
20.16438 327
20.18493 323
20.20547 347
20.22602 314
20.24657 348
20.26712 337
20.28767 349
20.30821 305
20.32876 304
20.34931 334
20.36986 331
20.39040 336
20.41095 342
20.43150 344
20.45205 306
20.47259 316
20.49314 335
20.51369 352
20.53424 309
20.55479 293
20.57533 362
20.59588 300
20.61643 352
20.63698 302
20.65753 321
20.67807 333
20.69862 346
20.71917 306
20.73972 348
20.76026 349
20.78081 371
20.80136 304
20.82191 288
20.84246 347
20.86300 337
20.88355 339
20.90410 298
20.92465 312
20.94519 336
20.96574 334
20.98629 339
21.00684 317
21.02739 314
21.04793 328
21.06848 300
21.08903 332
21.10958 357
21.13012 330
21.15067 310
21.17122 341
21.19177 328
21.21232 329
21.23286 338
21.25341 340
21.27396 273
21.29451 311
21.31506 348
21.33560 348
21.35615 351
21.37670 359
21.39725 347
21.41779 338
21.43834 330
21.45889 316
21.47944 335
21.49998 330
21.52053 346
21.54108 361
21.56163 324
21.58218 349
21.60272 335
21.62327 297
21.64382 354
21.66437 333
21.68491 324
21.70546 341
21.72601 325
21.74656 339
21.76711 300
21.78765 339
21.80820 337
21.82875 349
21.84930 338
21.86985 311
21.89039 349
21.91094 314
21.93149 337
21.95204 330
21.97258 355
21.99313 324
22.01368 311
22.03423 314
22.05477 357
22.07532 316
22.09587 337
22.11642 362
22.13697 349
22.15751 350
22.17806 341
22.19861 377
22.21916 302
22.23971 330
22.26025 329
22.28080 358
22.30135 337
22.32190 317
22.34244 349
22.36299 323
22.38354 363
22.40409 338
22.42464 338
22.44518 353
22.46573 377
22.48628 344
22.50683 368
22.52738 323
22.54792 347
22.56847 336
22.58902 364
22.60957 306
22.63011 362
22.65066 349
22.67121 382
22.69176 356
22.71230 311
22.73285 319
22.75340 331
22.77395 347
22.7945  328
22.81504 362
22.83559 339
22.85614 313
22.87669 362
22.89724 318
22.91778 329
22.93833 353
22.95888 328
22.97943 334
22.99997 366
23.02052 313
23.04107 318
23.06162 299
23.08217 347
23.10271 343
23.12326 356
23.14381 327
23.16436 385
23.18491 341
23.20545 370
23.22600 348
23.24655 371
23.26709 350
23.28764 354
23.30819 346
23.32874 365
23.34929 354
23.36983 360
23.39038 351
23.41093 333
23.43148 329
23.45203 318
23.47257 365
23.49312 324
23.51367 342
23.53422 351
23.55477 351
23.57531 318
23.59586 297
23.61641 340
23.63696 345
23.65750 315
23.67805 335
23.69860 317
23.71915 324
23.7397  372
23.76024 339
23.78079 334
23.80134 342
23.82189 339
23.84243 338
23.86298 340
23.88353 347
23.90408 351
23.92462 311
23.94517 334
23.96572 360
23.98627 363
24.00682 332
24.02736 355
24.04791 315
24.06846 344
24.08901 333
24.10956 338
24.13010 382
24.15065 333
24.17120 340
24.19175 349
24.21229 316
24.23284 348
24.25339 370
24.27394 340
24.29449 327
24.31503 330
24.33558 385
24.35613 316
24.37668 328
24.39722 357
24.41777 336
24.43832 362
24.45887 347
24.47942 355
24.49996 363
24.52051 322
24.54106 362
24.56161 328
24.58215 367
24.60270 371
24.62325 393
24.64380 334
24.66435 363
24.68489 374
24.70544 360
24.72599 349
24.74654 386
24.76709 329
24.78763 346
24.80818 376
24.82873 356
24.84928 330
24.86982 369
24.89037 371
24.91092 370
24.93147 389
24.95202 352
24.97256 354
24.99311 356
25.01366 354
25.03421 347
25.05475 380
25.07530 351
25.09585 351
25.11640 362
25.13695 326
25.15749 346
25.17804 375
25.19859 365
25.21914 354
25.23968 365
25.26023 314
25.28078 347
25.30133 387
25.32188 336
25.34242 334
25.36297 369
25.38352 351
25.40407 322
25.42462 357
25.44516 354
25.46571 327
25.48626 361
25.50681 349
25.52735 349
25.54790 328
25.56845 332
25.58900 341
25.60954 361
25.63009 343
25.65064 347
25.67119 384
25.69174 387
25.71228 331
25.73283 407
25.75338 345
25.77393 343
25.79447 347
25.81502 354
25.83557 340
25.85612 342
25.87667 352
25.89721 359
25.91776 372
25.93831 366
25.95886 372
25.97941 342
25.99995 343
26.02050 380
26.04105 350
26.06160 396
26.08215 335
26.10269 365
26.12324 389
26.14379 326
26.16433 320
26.18488 322
26.20543 374
26.22598 333
26.24653 354
26.26707 372
26.28762 351
26.30817 367
26.32872 360
26.34927 365
26.36981 379
26.39036 362
26.41091 371
26.43146 344
26.45200 346
26.47255 373
26.49310 359
26.51365 300
26.53420 379
26.55474 408
26.57529 328
26.59584 331
26.61639 343
26.63694 350
26.65748 387
26.67803 353
26.69858 303
26.71913 355
26.73967 339
26.76022 368
26.78077 390
26.80132 362
26.82186 363
26.84241 376
26.86296 384
26.88351 348
26.90406 372
26.92460 352
26.94515 339
26.96570 338
26.98625 355
27.0068  355
27.02734 348
27.04789 327
27.06844 359
27.08899 363
27.10953 337
27.13008 374
27.15063 362
27.17118 350
27.19173 394
27.21227 354
27.23282 352
27.25337 351
27.27392 386
27.29447 345
27.31501 334
27.33556 343
27.35611 353
27.37665 369
27.39720 361
27.41775 364
27.43830 393
27.45885 369
27.47939 348
27.49994 362
27.52049 384
27.54104 379
27.56159 350
27.58213 368
27.60268 350
27.62323 371
27.64378 328
27.66433 351
27.68487 370
27.70542 383
27.72597 344
27.74652 347
27.76706 370
27.78761 361
27.80816 372
27.82871 340
27.84926 357
27.86980 353
27.89035 363
27.91090 376
27.93145 326
27.95199 355
27.97254 361
27.99309 380
28.01364 361
28.03418 393
28.05473 344
28.07528 392
28.09583 396
28.11638 367
28.13692 340
28.15747 377
28.17802 362
28.19857 373
28.21912 337
28.23966 358
28.26021 384
28.28076 389
28.30131 400
28.32185 371
28.34240 368
28.36295 360
28.38350 354
28.40405 356
28.42459 347
28.44514 358
28.46569 361
28.48624 383
28.50678 394
28.52733 364
28.54788 373
28.56843 384
28.58898 398
28.60952 337
28.63007 361
28.65062 356
28.67117 380
28.69171 367
28.71226 360
28.73281 367
28.75336 364
28.77391 357
28.79445 384
28.81500 398
28.83555 390
28.85610 373
28.87665 358
28.89719 343
28.91774 345
28.93829 340
28.95884 335
28.97938 366
28.99993 389
29.02048 354
29.04103 383
29.06157 363
29.08212 345
29.10267 412
29.12322 398
29.14377 353
29.16431 382
29.18486 372
29.20541 374
29.22596 359
29.24651 363
29.26705 368
29.28760 403
29.30815 407
29.32870 349
29.34924 357
29.36979 355
29.39034 339
29.41089 414
29.43144 410
29.45198 371
29.47253 388
29.49308 383
29.51363 367
29.53418 369
29.55472 375
29.57527 356
29.59582 368
29.61637 361
29.63691 413
29.65746 354
29.67801 378
29.69856 357
29.71910 373
29.73965 400
29.76020 361
29.78075 360
29.8013  350
29.82184 354
29.84239 383
29.86294 373
29.88349 388
29.90403 367
29.92458 372
29.94513 388
29.96568 365
29.98623 392
30.00677 360
30.02732 361
30.04787 382
30.06842 387
30.08897 405
30.10951 373
30.13006 368
30.15061 394
30.17116 373
30.19171 360
30.21225 391
30.23280 390
30.25335 375
30.27389 381
30.29444 365
30.31499 388
30.33554 339
30.35609 390
30.37663 344
30.39718 396
30.41773 365
30.43828 392
30.45883 369
30.47937 387
30.49992 403
30.52047 386
30.54102 360
30.56156 409
30.58211 366
30.60266 391
30.62321 356
30.64376 389
30.66430 409
30.68485 368
30.70540 422
30.72595 343
30.7465  399
30.76704 384
30.78759 383
30.80814 344
30.82869 379
30.84923 378
30.86978 342
30.89033 419
30.91088 333
30.93142 372
30.95197 379
30.97252 360
30.99307 413
31.01362 366
31.03416 373
31.05471 386
31.07526 359
31.09581 358
31.11636 389
31.13690 359
31.15745 394
31.17800 380
31.19855 336
31.21909 340
31.23964 392
31.26019 391
31.28074 350
31.30129 391
31.32183 343
31.34238 365
31.36293 428
31.38348 362
31.40402 398
31.42457 355
31.44512 387
31.46567 376
31.48621 360
31.50676 387
31.52731 400
31.54786 393
31.56841 410
31.58895 393
31.60950 414
31.63005 381
31.65060 395
31.67115 415
31.69169 357
31.71224 389
31.73279 370
31.75334 352
31.77389 347
31.79443 369
31.81498 368
31.83553 354
31.85608 392
31.87662 376
31.89717 390
31.91772 391
31.93827 399
31.95882 371
31.97936 357
31.99991 362
32.02046 372
32.04101 403
32.06155 408
32.08210 384
32.10265 372
32.12320 410
32.14374 372
32.16429 335
32.18484 407
32.20539 383
32.22594 406
32.24649 374
32.26703 384
32.28758 345
32.30813 423
32.32867 385
32.34922 417
32.36977 408
32.39032 380
32.41087 397
32.43141 414
32.45196 366
32.47251 411
32.49306 382
32.51361 396
32.53415 367
32.55470 390
32.57525 383
32.59580 433
32.61634 397
32.63689 394
32.65744 372
32.67799 383
32.69854 384
32.71909 404
32.73963 373
32.76018 403
32.78073 382
32.80128 398
32.82182 375
32.84237 395
32.86292 386
32.88346 352
32.90401 408
32.92456 421
32.94511 361
32.96566 344
32.98621 365
33.00675 389
33.02730 361
33.04785 373
33.06840 383
33.08894 366
33.10949 395
33.13004 388
33.15059 409
33.17113 418
33.19168 407
33.21223 413
33.23278 383
33.25333 399
33.27388 369
33.29442 390
33.31497 413
33.33552 399
33.35607 360
33.37661 391
33.39716 389
33.41771 359
33.43826 392
33.45880 397
33.47935 406
33.49990 374
33.52045 382
33.541   399
33.56154 407
33.58209 405
33.60264 408
33.62319 384
33.64373 391
33.66428 411
33.68483 400
33.70538 376
33.72592 410
33.74647 391
33.76702 380
33.78757 410
33.80812 390
33.82867 436
33.84921 394
33.86976 411
33.89031 399
33.91086 400
33.93140 427
33.95195 408
33.97250 383
33.99305 409
34.01359 383
34.03414 391
34.05469 405
34.07524 419
34.09579 425
34.11633 380
34.13688 403
34.15743 352
34.17798 412
34.19852 379
34.21907 365
34.23962 376
34.26017 383
34.28072 424
34.30127 411
34.32181 391
34.34236 400
34.36291 379
34.38346 380
34.40400 364
34.42455 388
34.44510 381
34.46565 384
34.48619 401
34.50674 377
34.52729 350
34.54784 405
34.56839 442
34.58894 400
34.60948 412
34.63003 406
34.65058 362
34.67112 403
34.69167 406
34.71222 436
34.73277 378
34.75331 379
34.77386 394
34.79441 390
34.81496 394
34.83551 411
34.85606 401
34.87660 406
34.89715 381
34.91770 393
34.93825 398
34.95879 423
34.97934 407
34.99989 402
35.02044 419
35.04098 372
35.06153 416
35.08208 387
35.10263 385
35.12318 409
35.14373 432
35.16427 410
35.18482 389
35.20537 405
35.22591 363
35.24646 409
35.26701 429
35.28756 400
35.30810 409
35.32865 412
35.34920 374
35.36975 395
35.39030 430
35.41085 386
35.43139 443
35.45194 412
35.47249 421
35.49304 374
35.51358 388
35.53413 407
35.55468 401
35.57523 406
35.59577 417
35.61632 433
35.63687 427
35.65742 428
35.67797 414
35.69852 398
35.71906 405
35.73961 421
35.76016 385
35.78070 427
35.80125 398
35.82180 415
35.84235 394
35.8629  395
35.88345 373
35.90399 382
35.92454 408
35.94509 400
35.96564 418
35.98618 370
36.00673 412
36.02728 390
36.04783 388
36.06837 400
36.08892 405
36.10947 394
36.13002 448
36.15057 400
36.17112 430
36.19166 431
36.21221 413
36.23276 369
36.25331 391
36.27385 390
36.29440 392
36.31495 431
36.33550 427
36.35604 376
36.37659 396
36.39714 377
36.41769 403
36.43824 444
36.45878 385
36.47933 416
36.49988 389
36.52043 406
36.54097 403
36.56152 392
36.58207 395
36.60262 395
36.62316 414
36.64371 431
36.66426 418
36.68481 424
36.70536 408
36.72591 402
36.74645 395
36.76700 387
36.78755 413
36.80810 405
36.82864 391
36.84919 413
36.86974 411
36.89029 386
36.91083 431
36.93138 437
36.95193 428
36.97248 426
36.99303 424
37.01357 364
37.03412 445
37.05467 393
37.07522 394
37.09576 402
37.11631 407
37.13686 423
37.15741 440
37.17795 398
37.19850 408
37.21905 417
37.23960 391
37.26015 416
37.28070 437
37.30124 396
37.32179 410
37.34234 424
37.36289 425
37.38343 428
37.40398 411
37.42453 431
37.44508 438
37.46563 399
37.48617 372
37.50672 452
37.52727 357
37.54782 401
37.56836 411
37.58891 402
37.60946 411
37.63001 382
37.65055 417
37.67110 432
37.69165 428
37.71220 467
37.73275 395
37.7533  411
37.77384 402
37.79439 421
37.81494 445
37.83549 403
37.85603 407
37.87658 390
37.89713 428
37.91768 448
37.93822 405
37.95877 416
37.97932 447
37.99987 412
38.02042 403
38.04097 421
38.06151 411
38.08206 414
38.10261 436
38.12315 374
38.14370 419
38.16425 421
38.18480 440
38.20534 447
38.22589 428
38.24644 416
38.26699 407
38.28754 461
38.30809 390
38.32863 420
38.34918 418
38.36973 407
38.39028 403
38.41082 404
38.43137 424
38.45192 399
38.47247 416
38.49301 405
38.51356 395
38.53411 414
38.55466 409
38.57521 434
38.59576 395
38.61630 395
38.63685 432
38.65740 410
38.67795 403
38.69849 451
38.71904 412
38.73959 417
38.76013 415
38.78068 414
38.80123 398
38.82178 404
38.84233 430
38.86288 449
38.88342 440
38.90397 433
38.92452 434
38.94507 435
38.96561 409
38.98616 370
39.00671 384
39.02726 404
39.04781 383
39.06835 447
39.08890 419
39.10945 422
39.13000 438
39.15055 445
39.17109 442
39.19164 454
39.21219 448
39.23274 427
39.25328 411
39.27383 356
39.29438 401
39.31493 394
39.33548 454
39.35602 452
39.37657 438
39.39712 436
39.41767 436
39.43821 418
39.45876 411
39.47931 446
39.49986 425
39.52040 446
39.54095 421
39.56150 443
39.58205 447
39.6026  446
39.62315 417
39.64369 461
39.66424 433
39.68479 455
39.70534 411
39.72588 484
39.74643 416
39.76698 393
39.78753 416
39.80807 434
39.82862 428
39.84917 407
39.86972 409
39.89027 437
39.91081 415
39.93136 424
39.95191 458
39.97246 438
39.99300 437
40.01355 430
40.03410 433
40.05465 431
40.07519 396
40.09574 428
40.11629 435
40.13684 432
40.15739 438
40.17794 411
40.19848 419
40.21903 427
40.23958 412
40.26013 402
40.28067 432
40.30122 414
40.32177 409
40.34232 447
40.36286 440
40.38341 426
40.40396 460
40.42451 451
40.44506 422
40.46560 420
40.48615 416
40.50670 415
40.52725 442
40.54779 405
40.56834 433
40.58889 454
40.60944 402
40.62999 445
40.65053 431
40.67108 407
40.69163 410
40.71218 408
40.73273 436
40.75327 425
40.77382 404
40.79437 443
40.81492 425
40.83546 391
40.85601 397
40.87656 438
40.89711 423
40.91766 447
40.93821 431
40.95875 439
40.97930 410
40.99985 461
41.02040 468
41.04094 402
41.06149 414
41.08204 407
41.10258 412
41.12313 465
41.14368 427
41.16423 447
41.18478 422
41.20533 420
41.22587 439
41.24642 471
41.26697 439
41.28752 410
41.30806 448
41.32861 452
41.34916 414
41.36971 446
41.39025 459
41.41080 465
41.43135 437
41.45190 435
41.47245 486
41.493   418
41.51354 404
41.53409 433
41.55464 403
41.57519 457
41.59573 462
41.61628 459
41.63683 428
41.65737 434
41.67792 459
41.69847 395
41.71902 396
41.73957 431
41.76012 441
41.78066 416
41.80121 450
41.82176 403
41.84231 430
41.86285 434
41.88340 422
41.90395 460
41.92450 443
41.94504 459
41.96559 404
41.98614 416
42.00669 425
42.02724 421
42.04779 462
42.06833 442
42.08888 411
42.10943 426
42.12998 478
42.15052 430
42.17107 447
42.19162 482
42.21217 486
42.23271 428
42.25326 424
42.27381 454
42.29436 406
42.31491 452
42.33545 422
42.35600 482
42.37655 438
42.39710 445
42.41764 439
42.43819 497
42.45874 449
42.47929 465
42.49984 425
42.52039 457
42.54093 449
42.56148 445
42.58203 440
42.60258 464
42.62312 455
42.64367 439
42.66422 465
42.68477 435
42.70531 416
42.72586 425
42.74641 479
42.76696 473
42.78751 464
42.80805 439
42.82860 466
42.84915 452
42.86970 513
42.89024 416
42.91079 453
42.93134 437
42.95189 434
42.97243 423
42.99298 491
43.01353 459
43.03408 420
43.05463 453
43.07518 455
43.09572 498
43.11627 445
43.13682 488
43.15737 461
43.17791 442
43.19846 467
43.21901 453
43.23956 470
43.26010 453
43.28065 501
43.30120 454
43.32175 467
43.3423  443
43.36285 490
43.38339 446
43.40394 438
43.42449 479
43.44503 512
43.46558 519
43.48613 518
43.50668 522
43.52722 523
43.54777 533
43.56832 568
43.58887 619
43.60942 602
43.62997 688
43.65051 812
43.67106 888
43.69161 1157
43.71216 1274
43.73270 1494
43.75325 1528
43.77380 1495
43.79435 1478
43.81489 1411
43.83544 1379
43.85599 1236
43.87654 1089
43.89709 1039
43.91764 905
43.93818 798
43.95873 659
43.97928 606
43.99982 547
44.02037 482
44.04092 495
44.06147 482
44.08202 535
44.10257 471
44.12311 450
44.14366 468
44.16421 481
44.18476 446
44.20530 471
44.22585 487
44.24640 407
44.26695 468
44.28749 472
44.30804 469
44.32859 507
44.34914 455
44.36969 448
44.39024 502
44.41078 408
44.43133 456
44.45188 456
44.47243 457
44.49297 449
44.51352 472
44.53407 497
44.55461 468
44.57516 473
44.59571 469
44.61626 453
44.63681 483
44.65736 483
44.67790 495
44.69845 513
44.71900 531
44.73955 532
44.76009 608
44.78064 603
44.80119 610
44.82174 593
44.84228 562
44.86283 591
44.88338 508
44.90393 554
44.92448 524
44.94503 509
44.96557 498
44.98612 443
45.00667 494
45.02722 471
45.04776 480
45.06831 460
45.08886 480
45.10941 447
45.12995 490
45.15050 450
45.17105 464
45.19160 474
45.21215 454
45.23269 471
45.25324 497
45.27379 433
45.29434 482
45.31488 469
45.33543 486
45.35598 465
45.37653 492
45.39707 441
45.41762 427
45.43817 512
45.45872 444
45.47927 455
45.49982 467
45.52036 473
45.54091 463
45.56146 497
45.58201 474
45.60255 479
45.62310 456
45.64365 469
45.66420 475
45.68475 449
45.70529 436
45.72584 425
45.74639 471
45.76694 473
45.78748 469
45.80803 459
45.82858 467
45.84913 454
45.86967 409
45.89022 458
45.91077 524
45.93132 467
45.95187 460
45.97242 434
45.99296 447
46.01351 416
46.03406 461
46.05461 436
46.07515 468
46.09570 421
46.11625 444
46.13680 465
46.15734 474
46.17789 472
46.19844 458
46.21899 472
46.23954 473
46.26009 434
46.28063 448
46.30118 492
46.32173 446
46.34227 437
46.36282 445
46.38337 456
46.40392 459
46.42446 482
46.44501 441
46.46556 479
46.48611 449
46.50666 465
46.52721 455
46.54775 476
46.56830 478
46.58885 486
46.60940 474
46.62994 456
46.65049 477
46.67104 530
46.69159 474
46.71213 510
46.73268 471
46.75323 423
46.77378 481
46.79433 443
46.81488 476
46.83542 527
46.85597 490
46.87652 474
46.89706 460
46.91761 478
46.93816 467
46.95871 500
46.97925 484
46.99980 463
47.02035 472
47.04090 470
47.06145 431
47.08200 434
47.10254 466
47.12309 446
47.14364 476
47.16419 502
47.18473 488
47.20528 471
47.22583 472
47.24638 444
47.26693 458
47.28747 424
47.30802 434
47.32857 484
47.34912 472
47.36967 482
47.39021 445
47.41076 485
47.43131 468
47.45186 514
47.47240 480
47.49295 457
47.51350 481
47.53405 486
47.5546  435
47.57514 480
47.59569 459
47.61624 479
47.63679 466
47.65733 442
47.67788 447
47.69843 452
47.71898 478
47.73952 471
47.76007 480
47.78062 468
47.80117 424
47.82172 438
47.84227 453
47.86281 455
47.88336 499
47.90391 486
47.92446 470
47.94500 475
47.96555 453
47.98610 474
48.00665 440
48.02719 482
48.04774 445
48.06829 499
48.08884 467
48.10939 440
48.12993 463
48.15048 442
48.17103 453
48.19158 487
48.21212 464
48.23267 464
48.25322 444
48.27377 478
48.29431 467
48.31486 462
48.33541 443
48.35596 411
48.37651 485
48.39706 472
48.41760 447
48.43815 455
48.45870 504
48.47925 480
48.49979 472
48.52034 452
48.54089 459
48.56144 441
48.58198 519
48.60253 496
48.62308 547
48.64363 451
48.66418 473
48.68472 498
48.70527 459
48.72582 492
48.74637 473
48.76691 446
48.78746 492
48.80801 458
48.82856 440
48.84911 459
48.86965 502
48.89020 462
48.91075 464
48.93130 473
48.95185 438
48.97239 466
48.99294 464
49.01349 459
49.03404 468
49.05458 486
49.07513 460
49.09568 443
49.11623 466
49.13678 434
49.15733 458
49.17787 463
49.19842 498
49.21897 483
49.23951 458
49.26006 474
49.28061 488
49.30116 474
49.32170 503
49.34225 537
49.36280 483
49.38335 499
49.4039  496
49.42445 468
49.44499 482
49.46554 482
49.48609 513
49.50664 437
49.52718 460
49.54773 444
49.56828 458
49.58883 490
49.60937 477
49.62992 470
49.65047 430
49.67102 519
49.69157 449
49.71212 504
49.73266 455
49.75321 463
49.77376 503
49.79431 516
49.81485 520
49.83540 479
49.85595 472
49.87649 462
49.89704 456
49.91759 468
49.93814 500
49.95869 506
49.97924 495
49.99978 483
50.02033 466
50.04088 482
50.06143 449
50.08197 495
50.10252 466
50.12307 517
50.14362 447
50.16416 500
50.18471 474
50.20526 519
50.22581 492
50.24636 491
50.26691 493
50.28745 498
50.30800 513
50.32855 503
50.34910 531
50.36964 476
50.39019 468
50.41074 499
50.43129 502
50.45183 501
50.47238 510
50.49293 477
50.51348 511
50.53403 542
50.55457 485
50.57512 510
50.59567 506
50.61622 474
50.63676 548
50.65731 545
50.67786 523
50.69841 566
50.71896 574
50.73951 563
50.76005 595
50.78060 605
50.80115 614
50.82170 737
50.84224 727
50.86279 740
50.88334 836
50.90389 878
50.92443 867
50.94498 839
50.96553 906
50.98608 818
51.00663 819
51.02717 767
51.04772 785
51.06827 771
51.08882 670
51.10936 648
51.12991 602
51.15046 614
51.17101 586
51.19155 575
51.21210 525
51.23265 555
51.25320 511
51.27375 553
51.2943  539
51.31484 541
51.33539 478
51.35594 502
51.37649 480
51.39703 523
51.41758 492
51.43813 512
51.45868 467
51.47922 496
51.49977 488
51.52032 497
51.54087 550
51.56142 512
51.58196 497
51.60251 462
51.62306 463
51.64361 511
51.66415 485
51.68470 487
51.70525 480
51.72580 560
51.74634 491
51.76689 485
51.78744 504
51.80799 497
51.82854 470
51.84909 469
51.86963 515
51.89018 459
51.91073 498
51.93128 477
51.95182 487
51.97237 478
51.99292 461
52.01347 470
52.03401 513
52.05456 455
52.07511 513
52.09566 497
52.11621 487
52.13676 466
52.15730 463
52.17785 467
52.19840 498
52.21894 514
52.23949 508
52.26004 544
52.28059 478
52.30114 479
52.32169 478
52.34223 471
52.36278 544
52.38333 517
52.40388 481
52.42442 467
52.44497 519
52.46552 493
52.48607 535
52.50661 490
52.52716 490
52.54771 471
52.56826 494
52.58881 471
52.60936 481
52.62990 453
52.65045 461
52.67100 525
52.69155 507
52.71209 479
52.73264 518
52.75319 493
52.77373 488
52.79428 475
52.81483 540
52.83538 512
52.85593 515
52.87648 512
52.89702 521
52.91757 529
52.93812 473
52.95867 468
52.97921 499
52.99976 507
53.02031 463
53.04086 497
53.06140 493
53.08195 495
53.10250 518
53.12305 494
53.1436  505
53.16415 547
53.18469 555
53.20524 503
53.22579 490
53.24634 483
53.26688 521
53.28743 494
53.30798 471
53.32852 485
53.34907 523
53.36962 532
53.39017 473
53.41072 491
53.43127 497
53.45181 495
53.47236 497
53.49291 532
53.51346 487
53.53400 493
53.55455 517
53.57510 498
53.59565 509
53.61619 497
53.63674 506
53.65729 525
53.67784 529
53.69839 538
53.71894 487
53.73948 479
53.76003 485
53.78058 510
53.80113 511
53.82167 462
53.84222 500
53.86277 495
53.88332 490
53.90387 510
53.92441 497
53.94496 494
53.96551 483
53.98606 510
54.00660 522
54.02715 545
54.04770 464
54.06825 505
54.08879 471
54.10934 492
54.12989 495
54.15044 487
54.17099 522
54.19154 564
54.21208 520
54.23263 502
54.25318 512
54.27373 494
54.29427 499
54.31482 496
54.33537 503
54.35592 512
54.37646 487
54.39701 511
54.41756 464
54.43811 526
54.45866 512
54.47921 470
54.49975 490
54.52030 468
54.54085 488
54.56139 512
54.58194 502
54.60249 489
54.62304 536
54.64358 513
54.66413 522
54.68468 491
54.70523 503
54.72578 532
54.74633 549
54.76687 520
54.78742 468
54.80797 500
54.82852 534
54.84906 512
54.86961 491
54.89016 498
54.91071 528
54.93125 526
54.95180 519
54.97235 479
54.99290 530
55.01345 486
55.034   472
55.05454 496
55.07509 565
55.09564 552
55.11618 518
55.13673 503
55.15728 504
55.17783 519
55.19838 528
55.21892 517
55.23947 472
55.26002 490
55.28057 518
55.30112 490
55.32166 484
55.34221 506
55.36276 504
55.38331 503
55.40385 495
55.42440 496
55.44495 531
55.46550 498
55.48605 503
55.50659 570
55.52714 489
55.54769 535
55.56824 529
55.58879 476
55.60933 504
55.62988 501
55.65043 552
55.67097 484
55.69152 534
55.71207 490
55.73262 502
55.75317 557
55.77372 500
55.79426 513
55.81481 527
55.83536 511
55.85591 481
55.87645 480
55.89700 485
55.91755 541
55.93810 503
55.95864 511
55.97919 486
55.99974 520
56.02029 513
56.04084 517
56.06139 523
56.08193 516
56.10248 513
56.12303 539
56.14358 485
56.16412 529
56.18467 502
56.20522 518
56.22577 509
56.24631 482
56.26686 507
56.28741 514
56.30796 519
56.32851 516
56.34905 495
56.36960 529
56.39015 518
56.41070 509
56.43124 516
56.45179 481
56.47234 488
56.49289 565
56.51343 513
56.53398 532
56.55453 478
56.57508 518
56.59563 536
56.61618 540
56.63672 531
56.65727 525
56.67782 491
56.69837 514
56.71891 477
56.73946 533
56.76001 536
56.78056 516
56.80110 498
56.82165 531
56.84220 514
56.86275 543
56.88330 498
56.90384 523
56.92439 472
56.94494 514
56.96549 485
56.98603 580
57.00658 553
57.02713 500
57.04768 490
57.06823 544
57.08877 515
57.10932 515
57.12987 510
57.15042 532
57.17097 513
57.19151 523
57.21206 505
57.23261 478
57.25316 564
57.27370 501
57.29425 505
57.31480 543
57.33535 550
57.3559  473
57.37645 515
57.39699 528
57.41754 476
57.43809 496
57.45863 491
57.47918 539
57.49973 534
57.52028 514
57.54082 516
57.56137 554
57.58192 511
57.60247 524
57.62302 512
57.64357 455
57.66411 505
57.68466 547
57.70521 489
57.72576 512
57.74630 502
57.76685 511
57.78740 549
57.80795 514
57.82849 499
57.84904 490
57.86959 494
57.89014 529
57.91069 541
57.93124 513
57.95178 510
57.97233 521
57.99288 511
58.01342 498
58.03397 502
58.05452 535
58.07507 507
58.09561 529
58.11616 560
58.13671 538
58.15726 501
58.17781 491
58.19836 504
58.21890 512
58.23945 551
58.26000 541
58.28055 548
58.30109 503
58.32164 539
58.34219 528
58.36274 511
58.38328 566
58.40383 565
58.42438 538
58.44493 520
58.46548 562
58.48603 529
58.50657 510
58.52712 557
58.54767 526
58.56822 530
58.58876 513
58.60931 521
58.62986 541
58.65041 518
58.67095 519
58.69150 533
58.71205 507
58.73260 528
58.75315 543
58.77369 509
58.79424 519
58.81479 547
58.83534 540
58.85588 546
58.87643 542
58.89698 535
58.91753 514
58.93808 558
58.95863 548
58.97917 543
58.99972 530
59.02027 524
59.04082 503
59.06136 561
59.08191 520
59.10246 532
59.12301 503
59.14355 526
59.16410 515
59.18465 519
59.2052  504
59.22575 512
59.24629 502
59.26684 530
59.28739 525
59.30794 520
59.32848 524
59.34903 560
59.36958 538
59.39013 541
59.41067 502
59.43122 520
59.45177 545
59.47232 523
59.49287 551
59.51342 514
59.53396 530
59.55451 558
59.57506 565
59.59561 515
59.61615 480
59.63670 510
59.65725 513
59.67780 519
59.69834 543
59.71889 521
59.73944 552
59.75999 540
59.78054 537
59.80108 540
59.82163 584
59.84218 539
59.86273 531
59.88327 523
59.90382 533
59.92437 537
59.94492 515
59.96546 525
59.98601 562
60.00656 498
60.02711 539
60.04766 509
60.06821 532
60.08875 562
60.10930 550
60.12985 544
60.15040 545
60.17094 491
60.19149 521
60.21204 550
60.23259 521
60.25313 536
60.27368 545
60.29423 579
60.31478 531
60.33533 553
60.35587 549
60.37642 519
60.39697 537
60.41752 509
60.43806 524
60.45861 541
60.47916 543
60.49971 500
60.52026 538
60.54081 546
60.56135 559
60.58190 507
60.60245 552
60.62300 516
60.64354 519
60.66409 524
60.68464 548
60.70519 519
60.72573 566
60.74628 534
60.76683 542
60.78738 564
60.80793 532
60.82848 560
60.84902 525
60.86957 513
60.89012 521
60.91067 528
60.93121 507
60.95176 538
60.97231 554
60.99285 557
61.01340 560
61.03395 532
61.05450 487
61.07505 501
61.0956  523
61.11614 550
61.13669 532
61.15724 552
61.17779 523
61.19833 563
61.21888 541
61.23943 555
61.25998 614
61.28052 569
61.30107 550
61.32162 519
61.34217 501
61.36272 584
61.38327 554
61.40381 540
61.42436 562
61.44491 531
61.46546 521
61.48600 601
61.50655 558
61.52710 561
61.54764 567
61.56819 582
61.58874 529
61.60929 603
61.62984 589
61.65039 521
61.67093 511
61.69148 533
61.71203 543
61.73258 579
61.75312 516
61.77367 518
61.79422 534
61.81477 530
61.83532 490
61.85586 558
61.87641 582
61.89696 569
61.91751 530
61.93806 531
61.95860 555
61.97915 585
61.99970 559
62.02025 524
62.04079 513
62.06134 507
62.08189 539
62.10244 585
62.12299 536
62.14353 524
62.16408 499
62.18463 567
62.20518 503
62.22572 562
62.24627 535
62.26682 536
62.28737 537
62.30791 533
62.32846 526
62.34901 533
62.36956 549
62.39011 558
62.41066 545
62.43120 527
62.45175 563
62.47230 533
62.49285 538
62.51339 558
62.53394 485
62.55449 592
62.57504 553
62.59558 533
62.61613 556
62.63668 527
62.65723 566
62.67778 554
62.69832 580
62.71887 530
62.73942 551
62.75997 513
62.78051 479
62.80106 536
62.82161 535
62.84216 568
62.86270 496
62.88325 564
62.90380 558
62.92435 563
62.94490 513
62.96545 553
62.98599 543
63.00654 554
63.02709 547
63.04764 540
63.06818 542
63.08873 588
63.10928 571
63.12983 565
63.15037 529
63.17092 571
63.19147 544
63.21202 496
63.23257 565
63.25311 557
63.27366 567
63.29421 535
63.31476 485
63.33530 574
63.35585 576
63.37640 582
63.39695 534
63.4175  544
63.43804 540
63.45859 503
63.47914 555
63.49969 572
63.52024 556
63.54078 564
63.56133 570
63.58188 514
63.60243 577
63.62297 619
63.64352 543
63.66407 558
63.68462 561
63.70517 576
63.72571 501
63.74626 554
63.76681 521
63.78736 549
63.80791 519
63.82845 560
63.84900 553
63.86955 533
63.89009 545
63.91064 585
63.93119 527
63.95174 542
63.97229 565
63.99284 543
64.01339 588
64.03393 610
64.05448 523
64.07502 531
64.09558 541
64.11612 555
64.13667 549
64.15721 538
64.17777 528
64.19831 519
64.21886 549
64.23941 525
64.25996 564
64.28051 538
64.30105 559
64.32160 575
64.34215 524
64.36270 545
64.38324 554
64.40379 573
64.42433 573
64.44489 536
64.46543 537
64.48598 528
64.50653 547
64.52708 591
64.54763 586
64.56817 558
64.58872 543
64.60927 501
64.62982 502
64.65036 540
64.67091 548
64.69146 538
64.71201 535
64.73255 600
64.75310 579
64.77365 560
64.79420 560
64.81475 548
64.83529 543
64.85585 574
64.87639 563
64.89694 553
64.91748 576
64.93804 518
64.95858 548
64.97913 604
64.99968 528
65.02022 555
65.04077 581
65.06132 581
65.08187 553
65.10241 550
65.12297 555
65.14351 539
65.16406 545
65.18460 584
65.20516 539
65.22570 543
65.24625 568
65.2668  530
65.28735 528
65.30789 563
65.32844 557
65.34899 591
65.36954 560
65.39009 563
65.41063 592
65.43118 577
65.45173 552
65.47228 574
65.49282 528
65.51337 570
65.53392 563
65.55447 555
65.57502 575
65.59556 565
65.61611 514
65.63666 547
65.65721 563
65.67775 561
65.69830 549
65.71885 559
65.73940 535
65.75994 561
65.78049 559
65.80104 590
65.82159 531
65.84214 524
65.86268 556
65.88324 506
65.90378 576
65.92433 563
65.94487 561
65.96543 579
65.98597 540
66.00652 548
66.02706 559
66.04762 560
66.06816 537
66.08871 570
66.10926 582
66.12981 569
66.15036 560
66.17090 580
66.19145 550
66.21199 554
66.23255 580
66.25309 563
66.27364 586
66.29418 566
66.31474 557
66.33528 572
66.35583 537
66.37638 582
66.39693 584
66.41748 551
66.43802 566
66.45857 562
66.47912 569
66.49967 512
66.52021 570
66.54076 577
66.56131 576
66.58186 537
66.60240 570
66.62295 560
66.64350 585
66.66405 568
66.68460 603
66.70514 563
66.7257  563
66.74624 537
66.76679 607
66.78733 575
66.80788 543
66.82843 530
66.84898 562
66.86953 543
66.89007 541
66.91062 550
66.93117 539
66.95172 515
66.97226 584
66.99282 582
67.01336 551
67.03391 593
67.05445 541
67.07501 566
67.09555 564
67.11610 550
67.13665 570
67.15720 622
67.17775 573
67.19829 531
67.21884 550
67.23939 572
67.25994 563
67.28048 605
67.30103 558
67.32158 600
67.34213 553
67.36267 569
67.38322 601
67.40377 551
67.42432 533
67.44487 566
67.46541 550
67.48596 544
67.50651 568
67.52706 560
67.54760 582
67.56815 590
67.58870 544
67.60925 573
67.62979 565
67.65034 583
67.67089 546
67.69144 606
67.71199 561
67.73253 617
67.75309 563
67.77363 583
67.79418 587
67.81472 615
67.83528 552
67.85582 563
67.87637 580
67.89691 567
67.91747 574
67.93801 593
67.95856 572
67.97911 596
67.99965 554
68.02021 522
68.04075 574
68.06130 570
68.08184 566
68.10240 550
68.12294 567
68.14349 575
68.16404 578
68.18459 531
68.20513 617
68.22568 559
68.24623 578
68.26678 597
68.28733 565
68.30787 606
68.32842 622
68.34897 583
68.36952 556
68.39006 529
68.41061 572
68.43116 569
68.45171 576
68.47226 537
68.49280 627
68.51335 567
68.53390 593
68.55445 535
68.57499 567
68.59554 567
68.61609 581
68.63664 608
68.65718 546
68.67773 587
68.69828 557
68.71883 592
68.73938 593
68.75992 555
68.78047 562
68.80102 560
68.82157 511
68.84211 598
68.86267 532
68.88321 583
68.90376 578
68.92430 573
68.94486 578
68.96540 544
68.98595 586
69.0065  579
69.02705 585
69.0476  588
69.06814 608
69.08869 570
69.10923 567
69.12979 544
69.15033 577
69.17088 582
69.19142 550
69.21198 560
69.23252 534
69.25307 574
69.27362 604
69.29417 593
69.31472 531
69.33526 571
69.35581 562
69.37636 630
69.39691 574
69.41745 569
69.43800 533
69.45855 612
69.47910 599
69.49964 553
69.52019 561
69.54074 592
69.56129 578
69.58184 601
69.60238 589
69.62294 568
69.64348 560
69.66403 579
69.68457 578
69.70512 587
69.72567 542
69.74622 573
69.76676 582
69.78731 608
69.80786 542
69.82841 562
69.84896 544
69.86950 579
69.89006 591
69.91060 559
69.93115 611
69.95169 547
69.97225 559
69.99279 629
70.01334 555
70.03389 536
70.05444 625
70.07498 584
70.09553 600
70.11608 583
70.13663 595
70.15718 550
70.17772 562
70.19827 626
70.21882 559
70.23937 548
70.25991 579
70.28046 577
70.30101 597
70.32156 584
70.34211 526
70.36265 606
70.38320 578
70.40375 575
70.42430 593
70.44484 594
70.46539 577
70.48594 582
70.50649 578
70.52703 593
70.54758 591
70.56813 590
70.58868 554
70.60923 572
70.62977 539
70.65033 600
70.67087 589
70.69142 570
70.71196 591
70.73252 588
70.75306 575
70.77361 596
70.79415 579
70.81471 619
70.83525 581
70.85580 627
70.87635 562
70.89689 582
70.91745 604
70.93799 593
70.95854 565
70.97908 611
70.99964 569
71.02018 556
71.04073 580
71.06127 562
71.08183 586
71.10237 566
71.12292 628
71.14347 584
71.16402 609
71.18457 541
71.20511 597
71.22566 580
71.24621 557
71.26676 589
71.28730 616
71.30785 560
71.32840 532
71.34895 612
71.36949 535
71.39004 595
71.41059 577
71.43114 595
71.45169 624
71.47223 577
71.49278 583
71.51333 592
71.53388 623
71.55442 547
71.57497 586
71.59552 552
71.61607 600
71.63662 560
71.65716 619
71.67771 588
71.69826 609
71.71881 615
71.73935 569
71.75991 603
71.78045 619
71.80100 606
71.82154 616
71.84210 559
71.86264 597
71.88319 588
71.90374 566
71.92429 587
71.94483 572
71.96538 581
71.98593 598
72.00648 592
72.02703 583
72.04757 599
72.06812 606
72.08866 588
72.10922 611
72.12976 570
72.15031 584
72.17086 594
72.19141 601
72.21196 601
72.23250 616
72.25305 540
72.27360 612
72.29415 588
72.31469 576
72.33524 573
72.35579 578
72.37634 606
72.39688 599
72.41743 596
72.43798 609
72.45853 555
72.47908 590
72.49962 588
72.52018 592
72.54072 610
72.56127 560
72.58181 537
72.60237 594
72.62291 611
72.64346 585
72.66400 615
72.68455 584
72.70510 607
72.72565 637
72.74620 566
72.76674 574
72.7873  583
72.80784 635
72.82839 616
72.84893 575
72.86949 578
72.89003 606
72.91058 618
72.93112 612
72.95168 560
72.97222 602
72.99277 614
73.01332 604
73.03387 600
73.05442 573
73.07496 593
73.09551 595
73.11606 548
73.13661 590
73.15715 557
73.17770 624
73.19825 632
73.21880 667
73.23934 591
73.25989 593
73.28044 549
73.30099 568
73.32154 599
73.34208 592
73.36263 613
73.38318 630
73.40373 591
73.42427 603
73.44482 625
73.46537 605
73.48592 631
73.50647 600
73.52701 628
73.54756 587
73.56811 587
73.58866 561
73.60920 596
73.62976 605
73.65030 593
73.67085 614
73.69139 610
73.71195 613
73.73249 561
73.75304 583
73.77359 611
73.79413 537
73.81469 598
73.83523 664
73.85578 600
73.87632 616
73.89688 560
73.91742 646
73.93797 604
73.95851 612
73.97907 625
73.99961 591
74.02016 558
74.04071 629
74.06126 636
74.08181 587
74.10235 631
74.12290 604
74.14345 602
74.16400 629
74.18454 577
74.20509 586
74.22564 597
74.24619 625
74.26673 589
74.28728 613
74.30783 644
74.32838 609
74.34893 619
74.36947 625
74.39002 652
74.41057 617
74.43112 666
74.45166 573
74.47221 646
74.49276 641
74.51331 685
74.53385 630
74.55440 694
74.57495 693
74.59550 731
74.61605 688
74.63659 762
74.65715 744
74.67769 768
74.69824 785
74.71878 828
74.73934 846
74.75988 840
74.78043 882
74.80098 895
74.82153 852
74.84207 807
74.86262 806
74.88317 828
74.90372 790
74.92427 772
74.94481 774
74.96536 746
74.98590 790
75.00646 776
75.02700 762
75.04755 722
75.0681  688
75.08865 662
75.1092  681
75.12974 645
75.15029 664
75.17084 603
75.19139 652
75.21193 638
75.23248 614
75.25303 642
75.27358 616
75.29412 608
75.31467 628
75.33522 626
75.35577 609
75.37632 638
75.39686 577
75.41741 583
75.43796 672
75.45851 636
75.47905 630
75.49961 631
75.52015 635
75.54070 578
75.56124 585
75.58179 621
75.60234 605
75.62289 641
75.64344 606
75.66398 589
75.68454 619
75.70508 618
75.72563 574
75.74617 627
75.76673 633
75.78727 583
75.80782 606
75.82836 596
75.84892 664
75.86946 619
75.89001 585
75.91056 594
75.93111 643
75.95166 627
75.97220 642
75.99275 633
76.01330 635
76.03385 593
76.05439 595
76.07494 626
76.09549 629
76.11604 584
76.13658 588
76.15713 645
76.17768 627
76.19823 633
76.21878 593
76.23932 665
76.25987 595
76.28042 605
76.30097 609
76.32151 647
76.34206 647
76.36261 605
76.38316 631
76.40370 601
76.42425 639
76.44480 632
76.46535 637
76.48590 613
76.50644 638
76.527   585
76.54754 583
76.56809 629
76.58863 672
76.60919 584
76.62973 605
76.65028 611
76.67083 630
76.69138 667
76.71192 584
76.73247 600
76.75302 635
76.77356 600
76.79412 626
76.81466 647
76.83521 632
76.85575 599
76.87631 627
76.89685 641
76.91740 625
76.93795 636
76.95850 607
76.97905 633
76.99959 642
77.02014 619
77.04069 622
77.06124 618
77.08178 592
77.10233 609
77.12288 648
77.14343 639
77.16397 578
77.18452 595
77.20507 599
77.22562 653
77.24617 609
77.26671 629
77.28726 584
77.30781 576
77.32836 617
77.34890 608
77.36945 581
77.39000 616
77.41055 651
77.43109 610
77.45164 668
77.47219 623
77.49274 626
77.51329 626
77.53383 631
77.55439 646
77.57493 616
77.59548 612
77.61602 594
77.63658 681
77.65712 583
77.67767 580
77.69821 619
77.71877 631
77.73931 593
77.75986 651
77.78041 611
77.80096 625
77.82151 668
77.84205 635
77.86260 676
77.88314 626
77.90370 643
77.92424 659
77.94479 595
77.96534 614
77.98589 617
78.00643 622
78.02698 603
78.04753 633
78.06808 661
78.08863 600
78.10917 621
78.12972 606
78.15027 641
78.17082 624
78.19136 614
78.21191 645
78.23246 637
78.25301 645
78.27356 663
78.29410 590
78.31465 606
78.33520 632
78.35575 618
78.37629 622
78.39685 633
78.41739 594
78.43794 632
78.45848 640
78.47903 581
78.49958 622
78.52013 655
78.54068 646
78.56122 633
78.58177 606
78.60232 686
78.62287 613
78.64341 600
78.66397 611
78.68451 589
78.70506 643
78.72560 616
78.74616 620
78.76670 640
78.78725 645
78.8078  675
78.82835 612
78.8489  631
78.86944 623
78.88999 609
78.91054 652
78.93109 651
78.95163 637
78.97218 653
78.99273 635
79.01328 599
79.03382 613
79.05437 650
79.07492 667
79.09547 635
79.11602 585
79.13656 633
79.15711 665
79.17766 679
79.19821 641
79.21875 675
79.23930 631
79.25985 590
79.28040 662
79.30094 623
79.32149 625
79.34204 631
79.36259 602
79.38314 592
79.40368 643
79.42424 665
79.44478 631
79.46533 598
79.48587 650
79.50643 657
79.52697 643
79.54752 616
79.56806 603
79.58862 646
79.60916 605
79.62971 671
79.65026 624
79.67080 652
79.69136 620
79.71190 631
79.73245 663
79.75299 648
79.77355 627
79.79409 630
79.81464 636
79.83519 664
79.85574 660
79.87628 632
79.89683 628
79.91738 605
79.93793 629
79.95848 671
79.97902 655
79.99957 655
80.02012 615
80.04067 642
80.06121 585
80.08176 608
80.10231 667
80.12286 630
80.14341 608
80.16395 644
80.18450 617
80.20505 631
80.22560 622
80.24614 621
80.26669 672
80.28724 641
80.30779 588
80.32833 642
80.34888 627
80.36943 644
80.38998 628
80.41053 602
80.43107 650
80.45163 572
80.47217 645
80.49272 625
80.51326 647
80.53382 633
80.55436 639
80.57491 614
80.59545 669
80.61601 603
80.63655 657
80.65710 658
80.67765 671
80.69820 599
80.71875 625
80.73929 625
80.75984 629
80.78039 682
80.80094 601
80.82148 631
80.84203 661
80.86257 645
80.88313 647
80.90367 644
80.92422 628
80.94477 647
80.96532 698
80.98587 698
81.00641 646
81.02696 588
81.04751 662
81.06806 677
81.08860 648
81.10915 676
81.12970 688
81.15025 651
81.17079 646
81.19134 639
81.21189 658
81.23244 695
81.25299 630
81.27353 629
81.29409 626
81.31463 625
81.33518 613
81.35572 636
81.37627 652
81.39682 683
81.41737 666
81.43792 621
81.45846 639
81.47901 608
81.49956 661
81.52011 645
81.54065 665
81.56121 629
81.58175 629
81.60230 623
81.62284 637
81.64340 688
81.66394 616
81.68449 672
81.70504 606
81.72559 652
81.74614 678
81.76668 646
81.78723 619
81.80778 645
81.82833 660
81.84887 688
81.86942 608
81.88997 659
81.91052 720
81.93106 669
81.95161 692
81.97216 688
81.99271 714
82.01326 631
82.03380 653
82.05435 669
82.07490 668
82.09545 651
82.11599 658
82.13654 637
82.15709 653
82.17764 683
82.19818 684
82.21873 662
82.23928 688
82.25983 678
82.28038 681
82.30092 641
82.32148 686
82.34202 650
82.36257 686
82.38311 692
82.40367 654
82.42421 691
82.44476 636
82.46530 638
82.48586 685
82.50640 657
82.52695 626
82.54750 655
82.56804 695
82.5886  696
82.60914 661
82.62969 660
82.65023 673
82.67079 618
82.69133 693
82.71188 597
82.73243 675
82.75298 659
82.77352 687
82.79407 654
82.81462 577
82.83517 690
82.85572 644
82.87626 661
82.89681 623
82.91736 662
82.93791 635
82.95845 617
82.97900 670
82.99955 617
83.02010 704
83.04064 654
83.06119 633
83.08174 633
83.10229 619
83.12284 658
83.14338 655
83.16393 637
83.18448 613
83.20503 711
83.22557 605
83.24612 651
83.26667 630
83.28722 661
83.30777 662
83.32831 629
83.34886 617
83.36941 638
83.38996 636
83.41050 647
83.43106 706
83.45160 642
83.47215 618
83.49269 632
83.51325 632
83.53379 686
83.55434 636
83.57489 626
83.59544 686
83.61599 658
83.63653 650
83.65708 604
83.67763 640
83.69818 634
83.71872 637
83.73927 610
83.75981 608
83.78037 637
83.80091 677
83.82146 662
83.84201 689
83.86256 678
83.88311 639
83.90365 708
83.92420 668
83.94475 641
83.96530 628
83.98584 639
84.00639 664
84.02694 656
84.04749 663
84.06803 630
84.08858 673
84.10913 693
84.12968 685
84.15023 677
84.17077 649
84.19133 633
84.21187 655
84.23242 675
84.25296 702
84.27352 629
84.29406 697
84.31461 640
84.33515 685
84.35570 672
84.37625 614
84.39680 681
84.41735 650
84.43789 644
84.45845 645
84.47899 639
84.49954 658
84.52008 635
84.54064 642
84.56118 661
84.58173 667
84.60228 660
84.62283 637
84.64337 661
84.66392 644
84.68447 664
84.70502 679
84.72557 676
84.74611 649
84.76666 639
84.78721 678
84.80776 665
84.82830 678
84.84885 698
84.86940 636
84.88995 646
84.9105  660
84.93104 664
84.95159 699
84.97214 656
84.99269 664
85.01323 656
85.03378 690
85.05433 662
85.07488 629
85.09542 657
85.11597 649
85.13652 678
85.15707 668
85.17762 657
85.19816 660
85.21871 641
85.23926 634
85.25981 654
85.28035 669
85.30091 644
85.32145 688
85.34200 657
85.36254 620
85.38310 650
85.40364 664
85.42419 678
85.44474 666
85.46528 682
85.48584 623
85.50638 694
85.52693 674
85.54747 639
85.56803 653
85.58857 698
85.60912 668
85.62966 658
85.65022 678
85.67076 679
85.69131 630
85.71186 678
85.73241 658
85.75296 662
85.77350 674
85.79405 658
85.81460 613
85.83515 674
85.85569 668
85.87624 702
85.89679 625
85.91734 663
85.93788 675
85.95843 659
85.97898 670
85.99953 668
86.02008 678
86.04062 630
86.06117 667
86.08172 634
86.10227 619
86.12281 648
86.14336 633
86.16391 680
86.18446 632
86.20500 657
86.22555 668
86.24610 699
86.26665 642
86.28720 655
86.30774 610
86.3283  640
86.34884 638
86.36939 682
86.38993 613
86.41049 642
86.43103 645
86.45158 660
86.47213 605
86.49268 682
86.51322 665
86.53377 689
86.55432 650
86.57487 668
86.59542 643
86.61596 677
86.63651 668
86.65705 687
86.67761 702
86.69815 681
86.71870 670
86.73925 647
86.75980 675
86.78035 660
86.80089 671
86.82144 620
86.84199 652
86.86254 681
86.88308 638
86.90363 664
86.92418 692
86.94473 669
86.96527 674
86.98582 653
87.00637 696
87.02692 627
87.04747 746
87.06801 681
87.08857 673
87.10911 681
87.12966 690
87.15020 681
87.17076 659
87.19130 647
87.21185 619
87.23239 685
87.25294 662
87.27349 704
87.29404 659
87.31459 648
87.33513 693
87.35569 662
87.37623 696
87.39678 702
87.41732 665
87.43788 685
87.45842 664
87.47897 722
87.49951 649
87.52007 691
87.54061 650
87.56116 647
87.58171 665
87.60226 677
87.62281 635
87.64335 674
87.66390 650
87.68445 625
87.70500 669
87.72554 651
87.74609 668
87.76664 681
87.78719 647
87.80773 681
87.82828 663
87.84883 670
87.86938 652
87.88993 650
87.91047 668
87.93102 645
87.95157 659
87.97212 693
87.99266 652
88.01321 672
88.03376 696
88.05431 712
88.07486 669
88.09540 664
88.11595 656
88.13650 677
88.15705 669
88.17759 680
88.19815 714
88.21869 674
88.23924 708
88.25978 680
88.28034 686
88.30088 675
88.32143 705
88.34198 643
88.36253 691
88.38308 676
88.40362 673
88.42417 684
88.44471 659
88.46527 714
88.48581 671
88.50636 715
88.52690 667
88.54746 681
88.56800 675
88.58855 648
88.6091  709
88.62965 665
88.6502  741
88.67074 656
88.69129 692
88.71184 660
88.73239 705
88.75293 719
88.77348 707
88.79403 690
88.81458 669
88.83512 697
88.85567 742
88.87622 695
88.89677 642
88.91732 619
88.93786 704
88.95842 711
88.97896 655
88.99951 629
89.02005 705
89.04060 670
89.06115 663
89.08170 672
89.10224 693
89.12279 700
89.14334 707
89.16389 681
89.18444 684
89.20498 651
89.22554 688
89.24608 702
89.26663 690
89.28717 681
89.30773 685
89.32827 715
89.34882 664
89.36937 684
89.38992 648
89.41046 680
89.43101 715
89.45156 704
89.47211 681
89.49266 652
89.51320 659
89.53375 673
89.55429 630
89.57485 720
89.59539 674
89.61594 708
89.63649 675
89.65704 751
89.67758 678
89.69813 701
89.71868 699
89.73923 640
89.75978 659
89.78032 645
89.80087 682
89.82142 680
89.84197 717
89.86251 678
89.88306 687
89.90361 675
89.92416 696
89.94471 734
89.96525 750
89.98580 695
90.00635 673
90.02690 653
90.04744 677
90.06800 695
90.08854 709
90.10909 724
90.12963 685
90.15018 668
90.17073 686
90.19128 710
90.21183 723
90.23237 743
90.25293 723
90.27347 727
90.29402 674
90.31456 715
90.33512 700
90.35566 750
90.37621 708
90.39675 724
90.41731 743
90.43785 794
90.45840 779
90.47895 797
90.49950 759
90.52005 758
90.54059 754
90.56114 845
90.58169 872
90.60224 853
90.62278 869
90.64333 882
90.66388 918
90.68443 944
90.70497 917
90.72552 985
90.74607 884
90.76662 875
90.78717 850
90.80771 909
90.82826 876
90.84881 881
90.86936 901
90.88990 866
90.91045 846
90.93100 832
90.95155 856
90.97209 834
90.99264 830
91.01319 786
91.03374 838
91.05429 864
91.07483 809
91.09539 803
91.11593 814
91.13648 784
91.15702 788
91.17758 778
91.19812 749
91.21867 751
91.23922 740
91.25977 719
91.28031 750
91.30086 756
91.32141 764
91.34195 733
91.36251 720
91.38305 726
91.40360 716
91.42414 730
91.44470 711
91.46524 675
91.48579 761
91.50634 723
91.52689 758
91.54744 659
91.56798 673
91.58853 663
91.60908 725
91.62963 676
91.65017 711
91.67072 688
91.69127 705
91.71182 724
91.73236 715
91.75291 693
91.77346 698
91.79401 683
91.81456 686
91.83510 688
91.85565 708
91.87620 665
91.89675 642
91.91729 723
91.93784 680
91.95839 693
91.97894 709
91.99948 693
92.02003 688
92.04058 694
92.06113 736
92.08168 654
92.10222 648
92.12278 718
92.14332 731
92.16387 655
92.18441 680
92.20497 698
92.22551 691
92.24606 688
92.26660 679
92.28716 700
92.30770 705
92.32825 678
92.34880 719
92.36935 708
92.3899  704
92.41044 692
92.43099 659
92.45154 753
92.47209 694
92.49263 736
92.51318 685
92.53373 681
92.55428 713
92.57482 710
92.59537 717
92.61592 704
92.63647 681
92.65702 718
92.67756 695
92.69811 725
92.71866 712
92.73921 720
92.75975 698
92.78030 687
92.80085 651
92.82140 671
92.84194 672
92.86249 694
92.88304 732
92.90359 693
92.92414 717
92.94468 687
92.96524 702
92.98578 695
93.00633 697
93.02687 706
93.04743 704
93.06797 712
93.08852 703
93.10907 715
93.12961 676
93.15016 689
93.17071 718
93.19126 667
93.21180 672
93.23236 698
93.25290 754
93.27345 750
93.29399 713
93.31455 686
93.33509 705
93.35564 744
93.37619 737
93.39674 735
93.41729 718
93.43783 732
93.45838 709
93.47893 682
93.49948 671
93.52002 767
93.54057 771
93.56112 714
93.58167 693
93.60221 735
93.62276 659
93.64331 730
93.66386 678
93.68441 723
93.70495 727
93.72550 702
93.74605 735
93.76660 725
93.78714 692
93.80769 729
93.82824 692
93.84879 709
93.86933 725
93.88988 721
93.91043 675
93.93098 701
93.95153 678
93.97207 700
93.99263 746
94.01317 671
94.03372 689
94.05426 713
94.07482 725
94.09536 720
94.11591 724
94.13645 706
94.15701 702
94.17755 693
94.19810 703
94.21865 713
94.23919 709
94.25975 682
94.28029 717
94.30084 743
94.32138 696
94.34194 704
94.36248 718
94.38303 738
94.40358 676
94.42413 714
94.44467 716
94.46522 701
94.48577 688
94.50632 684
94.52687 768
94.54741 717
94.56796 728
94.58851 706
94.60906 696
94.62960 726
94.65015 733
94.67070 690
94.69125 696
94.7118  682
94.73234 701
94.75289 712
94.77344 700
94.79399 685
94.81453 747
94.83508 719
94.85563 681
94.87618 684
94.89672 710
94.91727 659
94.93782 703
94.95837 736
94.97892 670
94.99946 756
95.02002 705
95.04056 650
95.06111 681
95.08165 666
95.10221 720
95.12275 689
95.14330 752
95.16384 661
95.18440 704
95.20494 689
95.22549 726
95.24604 712
95.26659 668
95.28714 628
95.30768 702
95.32823 732
95.34878 781
95.36933 738
95.38987 709
95.41042 705
95.43096 717
95.45152 719
95.47206 711
95.49261 735
95.51316 689
95.53371 743
95.55426 696
95.57480 699
95.59535 762
95.61590 704
95.63645 691
95.65699 719
95.67754 711
95.69809 759
95.71864 687
95.73918 742
95.75973 740
95.78028 760
95.80083 723
95.82138 733
95.84192 782
95.86248 743
95.88302 753
95.90357 807
95.92411 833
95.94467 749
95.96521 838
95.98576 780
96.00631 767
96.02685 808
96.04740 739
96.06795 787
96.08850 748
96.10904 767
96.12960 758
96.15014 731
96.17069 727
96.19123 756
96.21179 808
96.23233 801
96.25288 685
96.27343 790
96.29398 740
96.31452 745
96.33507 768
96.35562 738
96.37617 719
96.39672 746
96.41726 736
96.43781 772
96.45836 762
96.47891 720
96.49945 735
96.52000 739
96.54055 761
96.56110 755
96.58165 748
96.60219 654
96.62274 688
96.64329 728
96.66384 758
96.68438 716
96.70493 741
96.72548 796
96.74603 668
96.76657 739
96.78712 666
96.80767 769
96.82822 736
96.84877 746
96.86931 731
96.88987 685
96.91041 730
96.93096 734
96.95150 758
96.97206 682
96.99260 774
97.01315 746
97.03369 736
97.05425 735
97.07479 734
97.09534 725
97.11589 733
97.13644 682
97.15699 752
97.17753 691
97.19808 762
97.21862 745
97.23918 714
97.25972 723
97.28027 744
97.30081 703
97.32137 709
97.34191 738
97.36246 736
97.38301 702
97.40356 703
97.42411 744
97.44465 754
97.46520 696
97.48575 713
97.50630 799
97.52684 760
97.54739 728
97.56794 688
97.58849 703
97.60903 720
97.62958 695
97.65013 695
97.67068 736
97.69123 769
97.71177 755
97.73233 678
97.75287 771
97.77342 749
97.79396 710
97.81451 774
97.83506 707
97.85561 683
97.87616 681
97.89670 725
97.91725 675
97.93780 725
97.95835 722
97.97889 736
97.99945 730
98.01999 771
98.04054 729
98.06108 678
98.08164 723
98.10218 741
98.12273 726
98.14328 743
98.16383 656
98.18438 717
98.20492 754
98.22547 742
98.24602 774
98.26657 735
98.28711 702
98.30766 724
98.32820 760
98.34876 745
98.36930 667
98.38985 728
98.4104  796
98.43095 769
98.4515  692
98.47204 708
98.49259 756
98.51314 739
98.53369 750
98.55423 755
98.57478 747
98.59533 765
98.61588 724
98.63642 742
98.65697 694
98.67752 705
98.69807 697
98.71862 708
98.73916 718
98.75972 763
98.78026 762
98.80081 758
98.82135 735
98.84191 773
98.86245 764
98.88300 778
98.90354 726
98.92409 762
98.94464 738
98.96519 770
98.98574 721
99.00628 716
99.02684 731
99.04738 708
99.06793 719
99.08847 717
99.10903 722
99.12957 731
99.15012 713
99.17067 720
99.19122 776
99.21176 739
99.23231 726
99.25286 717
99.27341 727
99.29396 754
99.31450 704
99.33505 717
99.35560 777
99.37615 728
99.39669 729
99.41724 778
99.43779 803
99.45834 717
99.47888 690
99.49943 753
99.51998 760
99.54053 761
99.56108 689
99.58162 749
99.60217 758
99.62272 744
99.64327 716
99.66381 784
99.68436 638
99.70491 734
99.72546 737
99.74601 750
99.76655 732
99.78710 689
99.80765 702
99.82820 721
99.84874 747
99.86930 718
99.88984 740
99.91039 698
99.93093 743
99.95149 730
99.97203 748
99.99258 794
